heat_flux_time_[ms],heat_flux_[W/m^2],thermocouple1_time_[ms],thermocouple1_[degC],thermocouple2_time_[ms],thermocouple2_[deg_C]
0.195000,-625.221867,0.193000,21.843750,0.129000,25.968750,
0.393000,-633.731333,0.388000,21.327083,0.322000,25.968750,
0.583000,-639.105733,0.582000,20.904861,0.517000,25.968750,
0.777000,-645.823733,0.776000,20.364120,0.712000,26.085417,
0.974000,-653.437467,0.971000,19.800540,0.906000,26.007639,
1.169000,-658.811867,1.165000,19.346013,1.100000,25.981713,
1.363000,-663.738400,1.359000,19.061171,1.295000,25.973071,
1.556000,-667.321333,1.554000,18.716224,1.489000,25.970190,
1.751000,-670.008533,1.748000,18.334575,1.683000,25.969230,
1.944000,-672.695733,1.943000,18.074025,1.878000,25.968910,
2.139000,-674.039333,2.137000,17.737175,2.073000,26.085470,
2.334000,-675.382933,2.331000,17.491558,2.267000,26.007657,
2.528000,-676.278667,2.526000,17.276353,2.461000,26.098386,
2.723000,-677.622267,2.720000,17.204618,2.656000,26.011962,
2.931000,-679.413733,2.915000,17.047373,2.850000,25.983154,
3.114000,-679.861600,3.109000,16.861624,3.045000,25.973551,
3.307000,-681.205200,3.304000,16.683041,3.239000,25.970350,
3.502000,-681.205200,3.498000,16.623514,3.434000,25.969283,
3.695000,-681.653067,3.693000,16.470338,3.628000,25.968928,
3.892000,-680.757333,3.887000,16.419279,3.822000,25.968809,
4.083000,-679.861600,4.081000,16.268926,4.017000,26.085436,
4.278000,-680.309467,4.276000,16.218809,4.211000,26.124312,
4.473000,-682.548800,4.470000,16.068770,4.406000,26.020604,
4.668000,-682.548800,4.666000,16.039590,4.601000,26.006868,
4.862000,-684.340267,4.860000,15.875697,4.796000,25.981456,
5.056000,-686.131733,5.054000,15.821066,4.990000,25.972985,
5.252000,-686.579600,5.249000,15.802855,5.184000,25.970162,
5.447000,-686.131733,5.443000,15.796785,5.379000,25.969221,
5.639000,-685.683867,5.638000,15.661428,5.573000,25.968907,
5.835000,-685.236000,5.832000,15.616309,5.768000,25.968802,
6.028000,-686.579600,6.027000,15.601270,5.962000,25.968767,
6.223000,-686.131733,6.221000,15.596257,6.157000,26.085422,
6.418000,-685.236000,6.416000,15.594586,6.351000,26.007641,
6.612000,-683.444533,6.610000,15.594029,6.546000,25.981714,
6.806000,-686.131733,6.804000,15.477176,6.740000,25.973071,
7.000000,-687.475333,6.999000,15.438225,6.934000,26.086857,
7.195000,-688.371067,7.193000,15.425242,7.129000,26.008119,
7.390000,-689.714667,7.388000,15.420914,7.323000,25.981873,
7.585000,-690.610400,7.582000,15.419471,7.518000,26.089791,
7.778000,-690.610400,7.776000,15.418990,7.712000,26.009097,
7.972000,-690.610400,7.971000,15.418830,7.906000,25.982199,
8.169000,-691.058267,8.165000,15.285443,8.101000,25.973233,
8.368000,-690.610400,8.360000,15.240981,8.295000,25.970244,
8.557000,-691.506133,8.554000,15.226160,8.490000,25.969248,
8.753000,-693.297600,8.749000,15.221220,8.684000,25.968916,
8.950000,-694.641200,8.943000,15.198740,8.879000,25.947972,
9.139000,-695.089067,9.137000,15.191247,9.073000,25.940991,
9.333000,-695.089067,9.332000,15.188749,9.268000,25.938664,
9.529000,-695.536933,9.526000,15.187916,9.461000,25.937888,
9.723000,-694.193333,9.721000,15.054305,9.656000,25.937629,
9.916000,-695.536933,9.915000,15.143102,9.850000,25.937543,
10.114000,-695.984800,10.110000,15.172701,10.045000,25.937514,
10.305000,-696.432667,10.304000,15.182567,10.239000,25.937505,
10.500000,-694.641200,10.498000,15.052522,10.434000,26.054168,
10.694000,-692.849733,10.693000,15.009174,10.628000,25.976389,
10.889000,-692.401867,10.887000,14.994725,10.823000,25.950463,
11.083000,-691.506133,11.081000,15.010742,11.017000,25.962654,
11.281000,-692.849733,11.276000,15.016081,11.211000,25.966718,
11.472000,-693.297600,11.470000,15.017860,11.407000,25.968073,
11.667000,-693.297600,11.665000,15.018453,11.600000,25.968524,
11.861000,-694.193333,11.859000,15.018651,11.795000,25.968675,
12.055000,-689.266800,12.054000,15.018717,11.989000,25.968725,
12.251000,-692.849733,12.248000,15.018739,12.183000,25.968742,
12.445000,-692.849733,12.443000,15.018746,12.378000,25.968747,
12.639000,-692.849733,12.637000,15.018749,12.572000,26.085416,
12.833000,-692.849733,12.831000,15.018750,12.767000,26.007639,
13.027000,-691.954000,13.026000,15.018750,12.961000,25.981713,
13.222000,-691.954000,13.220000,14.885417,13.155000,25.973071,
13.417000,-690.162533,13.415000,14.840972,13.351000,25.970190,
13.615000,-689.266800,13.609000,14.826157,13.544000,25.969230,
13.805000,-691.058267,13.804000,14.821219,13.740000,25.968910,
14.001000,-693.297600,13.998000,14.819573,13.933000,25.968803,
14.193000,-693.745467,14.192000,14.819024,14.128000,25.968768,
14.391000,-694.193333,14.387000,14.818841,14.322000,25.968756,
14.583000,-695.089067,14.581000,14.818780,14.517000,25.968752,
14.778000,-691.954000,14.776000,14.818760,14.711000,25.968751,
14.971000,-687.027467,14.970000,14.818753,14.906000,25.968750,
15.166000,-686.131733,15.164000,14.818751,15.100000,25.968750,
15.361000,-683.892400,15.359000,14.818750,15.294000,25.968750,
15.555000,-683.892400,15.553000,14.818750,15.489000,25.968750,
15.751000,-686.579600,15.748000,14.685417,15.683000,25.968750,
15.944000,-689.714667,15.942000,14.774306,15.878000,25.968750,
16.149000,-690.610400,16.137000,14.670602,16.072000,25.968750,
16.334000,-691.058267,16.331000,14.636034,16.266000,25.968750,
16.527000,-691.058267,16.525000,14.624511,16.461000,25.968750,
16.721000,-690.162533,16.720000,14.754004,16.656000,26.085417,
16.915000,-689.714667,16.914000,14.684668,16.850000,26.028472,
17.113000,-691.954000,17.109000,14.794889,17.044000,26.009491,
17.308000,-691.954000,17.304000,14.831630,17.238000,26.003164,
17.500000,-692.849733,17.497000,14.710543,17.433000,26.001055,
17.693000,-693.745467,17.692000,14.670181,17.627000,26.000352,
17.890000,-693.297600,17.886000,14.656727,17.822000,26.000117,
18.082000,-693.297600,18.081000,14.652242,18.016000,26.000039,
18.276000,-691.058267,18.275000,14.650747,18.210000,26.000013,
18.470000,-689.266800,18.469000,14.650249,18.405000,26.000004,
18.665000,-688.371067,18.664000,14.650083,18.599000,26.000001,
18.863000,-685.683867,18.858000,14.650028,18.793000,26.000000,
19.054000,-685.683867,19.052000,14.650009,18.988000,26.000000,
19.250000,-688.371067,19.247000,14.650003,19.182000,26.000000,
19.445000,-691.058267,19.441000,14.533334,19.376000,26.000000,
19.640000,-690.610400,19.636000,14.611111,19.572000,26.116667,
19.832000,-689.714667,19.830000,14.637037,19.765000,26.038889,
20.026000,-688.371067,20.024000,14.645679,19.960000,26.012963,
20.221000,-687.923200,20.219000,14.648560,20.154000,26.120988,
20.414000,-688.818933,20.413000,14.532853,20.348000,26.040329,
20.609000,-690.162533,20.607000,14.610951,20.543000,26.013443,
20.803000,-690.610400,20.802000,14.636984,20.737000,26.004481,
20.998000,-689.714667,20.996000,14.528995,20.932000,26.001494,
21.193000,-688.371067,21.191000,14.472165,21.126000,25.979665,
21.387000,-688.818933,21.385000,14.474055,21.320000,25.993222,
21.581000,-689.266800,21.579000,14.474685,21.515000,25.997741,
21.778000,-690.162533,21.774000,14.474895,21.709000,25.999247,
21.971000,-690.610400,21.968000,14.474965,21.904000,25.999749,
22.167000,-689.714667,22.164000,14.474988,22.099000,25.999916,
22.360000,-690.610400,22.358000,14.474996,22.293000,25.999972,
22.557000,-690.610400,22.552000,14.474999,22.488000,25.999991,
22.748000,-689.714667,22.747000,14.475000,22.682000,26.116664,
22.944000,-689.714667,22.941000,14.475000,22.876000,26.155555,
23.140000,-688.371067,23.135000,14.475000,23.071000,26.051852,
23.335000,-689.266800,23.330000,14.475000,23.265000,26.133951,
23.525000,-689.266800,23.524000,14.475000,23.459000,26.044650,
23.720000,-689.266800,23.719000,14.475000,23.654000,26.014883,
23.915000,-688.818933,23.913000,14.475000,23.848000,26.004961,
24.110000,-688.818933,24.107000,14.475000,24.043000,26.001654,
24.303000,-690.610400,24.302000,14.475000,24.237000,26.000551,
24.499000,-691.506133,24.496000,14.475000,24.431000,26.000184,
24.695000,-691.058267,24.691000,14.475000,24.626000,26.000061,
24.890000,-687.923200,24.885000,14.475000,24.820000,26.000020,
25.081000,-685.236000,25.079000,14.475000,25.015000,26.000007,
25.276000,-683.444533,25.274000,14.475000,25.209000,26.000002,
25.469000,-681.653067,25.468000,14.475000,25.403000,26.000001,
25.664000,-682.996667,25.662000,14.475000,25.598000,26.000000,
25.860000,-684.788133,25.857000,14.475000,25.792000,26.000000,
26.052000,-687.027467,26.051000,14.475000,25.986000,26.000000,
26.248000,-684.788133,26.245000,14.475000,26.181000,26.000000,
26.442000,-685.683867,26.440000,14.475000,26.375000,26.000000,
26.637000,-686.579600,26.634000,14.475000,26.570000,26.000000,
26.830000,-687.027467,26.829000,14.475000,26.764000,26.000000,
27.024000,-690.162533,27.023000,14.454167,26.958000,25.979167,
27.220000,-691.506133,27.217000,14.313889,27.153000,25.972222,
27.414000,-692.849733,27.412000,14.400463,27.347000,26.086574,
27.611000,-693.297600,27.606000,14.429321,27.541000,26.124691,
27.802000,-692.401867,27.801000,14.305607,27.736000,26.020730,
27.996000,-691.506133,27.995000,14.264369,27.930000,26.102743,
28.192000,-690.162533,28.190000,14.250623,28.125000,26.130081,
28.385000,-689.714667,28.384000,14.246041,28.320000,26.139194,
28.580000,-688.818933,28.578000,14.244514,28.514000,26.142231,
28.775000,-688.371067,28.773000,14.244005,28.708000,26.026577,
28.973000,-687.923200,28.968000,14.243835,28.903000,25.988026,
29.165000,-686.579600,29.162000,14.377112,29.097000,25.975175,
29.358000,-685.236000,29.356000,14.288204,29.292000,25.970892,
29.552000,-685.683867,29.550000,14.391901,29.486000,25.969464,
29.746000,-685.236000,29.745000,14.293134,29.680000,25.968988,
29.942000,-685.236000,29.940000,14.260211,29.875000,25.968829,
30.136000,-684.788133,30.134000,14.249237,30.070000,25.968776,
30.330000,-684.340267,30.328000,14.245579,30.264000,25.968759,
30.524000,-682.548800,30.523000,14.244360,30.458000,25.968753,
30.719000,-682.100933,30.717000,14.243953,30.653000,25.968751,
30.915000,-682.996667,30.912000,14.243818,30.847000,25.968750,
31.110000,-683.444533,31.106000,14.264606,31.041000,25.989583,
31.303000,-682.548800,31.300000,14.271535,31.236000,25.996528,
31.497000,-681.653067,31.495000,14.273845,31.430000,25.998843,
31.693000,-681.205200,31.689000,14.274615,31.624000,25.999614,
31.885000,-681.205200,31.883000,14.274872,31.819000,25.999871,
32.079000,-682.548800,32.078000,14.274957,32.013000,25.999957,
32.274000,-682.996667,32.272000,14.274986,32.208000,25.999986,
32.468000,-682.548800,32.466000,14.274995,32.402000,25.999995,
32.662000,-682.100933,32.661000,14.274998,32.597000,25.999998,
32.858000,-681.205200,32.855000,14.274999,32.791000,25.999999,
33.052000,-679.861600,33.050000,14.275000,32.985000,26.000000,
33.245000,-679.413733,33.244000,14.275000,33.179000,26.000000,
33.441000,-678.965867,33.438000,14.275000,33.374000,26.000000,
33.635000,-680.309467,33.633000,14.275000,33.568000,26.000000,
33.832000,-681.205200,33.827000,14.275000,33.763000,26.000000,
34.024000,-681.653067,34.021000,14.275000,33.957000,26.000000,
34.217000,-682.548800,34.216000,14.275000,34.152000,26.000000,
34.412000,-682.100933,34.410000,14.275000,34.346000,26.116667,
34.606000,-681.205200,34.605000,14.275000,34.540000,26.038889,
34.804000,-681.205200,34.799000,14.275000,34.734000,26.012963,
34.995000,-681.653067,34.993000,14.275000,34.929000,26.004321,
35.190000,-682.548800,35.188000,14.275000,35.123000,26.001440,
35.389000,-682.100933,35.382000,14.275000,35.318000,26.000480,
35.578000,-681.653067,35.576000,14.275000,35.512000,26.000160,
35.772000,-680.309467,35.771000,14.275000,35.706000,26.000053,
35.968000,-678.965867,35.965000,14.275000,35.901000,26.000018,
36.161000,-681.653067,36.160000,14.141667,36.095000,26.000006,
36.357000,-682.100933,36.354000,14.230556,36.290000,26.000002,
36.550000,-682.100933,36.548000,14.260185,36.484000,26.000001,
36.746000,-683.892400,36.743000,14.136728,36.678000,26.000000,
36.939000,-682.100933,36.937000,14.228909,36.872000,26.000000,
37.134000,-683.444533,37.132000,14.259636,37.067000,26.000000,
37.328000,-683.892400,37.326000,14.269879,37.262000,26.000000,
37.523000,-683.444533,37.520000,14.273293,37.456000,26.000000,
37.717000,-683.444533,37.715000,14.295264,37.650000,26.020833,
37.911000,-681.653067,37.909000,14.302588,37.844000,26.027778,
38.105000,-682.548800,38.104000,14.171696,38.039000,26.030093,
38.301000,-682.996667,38.298000,14.128065,38.234000,26.030864,
38.494000,-683.444533,38.492000,14.246855,38.428000,26.031121,
38.689000,-682.996667,38.687000,14.132285,38.622000,26.010374,
38.882000,-683.444533,38.881000,14.227428,38.817000,26.120125,
39.079000,-683.892400,39.076000,14.125809,39.012000,26.156708,
39.272000,-682.996667,39.270000,14.225270,39.206000,26.052236,
39.466000,-682.996667,39.464000,14.125090,39.400000,26.017412,
39.663000,-683.444533,39.660000,14.091697,39.595000,26.005804,
39.856000,-683.444533,39.854000,14.080566,39.790000,26.001935,
40.050000,-682.548800,40.049000,14.076855,39.984000,26.000645,
40.244000,-683.444533,40.243000,14.208952,40.178000,26.000215,
40.440000,-683.892400,40.437000,14.119651,40.373000,26.000072,
40.633000,-683.444533,40.632000,14.089884,40.567000,26.000024,
40.828000,-683.892400,40.826000,14.079961,40.761000,26.000008,
41.028000,-683.444533,41.021000,14.076654,40.956000,26.000003,
41.217000,-682.996667,41.215000,14.075551,41.150000,26.000001,
41.411000,-682.548800,41.409000,14.075184,41.345000,26.000000,
41.609000,-682.996667,41.604000,14.075061,41.539000,26.116667,
41.801000,-682.996667,41.798000,14.075020,41.734000,26.038889,
41.994000,-683.444533,41.992000,14.075007,41.928000,26.129630,
42.189000,-682.548800,42.187000,14.075002,42.122000,26.043210,
42.383000,-682.996667,42.381000,14.075001,42.316000,26.014403,
42.578000,-683.444533,42.575000,14.075000,42.511000,26.004801,
42.771000,-683.892400,42.770000,14.075000,42.706000,26.001600,
42.965000,-682.996667,42.964000,14.075000,42.900000,26.000533,
43.160000,-682.996667,43.159000,14.075000,43.094000,26.000178,
43.357000,-682.100933,43.353000,14.075000,43.288000,26.000059,
43.549000,-682.996667,43.547000,14.075000,43.483000,26.000020,
43.743000,-682.996667,43.742000,14.095833,43.677000,26.020840,
43.944000,-681.205200,43.936000,14.081944,43.872000,26.006947,
44.134000,-683.892400,44.131000,14.098148,44.066000,26.023149,
44.326000,-682.996667,44.325000,14.103549,44.260000,26.028550,
44.521000,-681.653067,44.519000,14.105350,44.455000,26.030350,
44.716000,-679.861600,44.714000,14.105950,44.649000,26.030950,
44.910000,-677.622267,44.908000,14.106150,44.844000,26.031150,
45.104000,-678.070133,45.102000,14.106217,45.038000,26.031217,
45.300000,-679.861600,45.297000,14.106239,45.232000,26.147906,
45.494000,-679.413733,45.491000,14.106246,45.428000,26.186802,
45.692000,-678.518000,45.686000,14.106249,45.621000,26.083101,
45.882000,-681.205200,45.880000,14.106250,45.816000,26.048534,
46.076000,-681.205200,46.075000,14.106250,46.010000,26.037011,
46.271000,-682.996667,46.269000,14.106250,46.205000,26.033170,
46.465000,-683.444533,46.464000,14.106250,46.399000,26.148557,
46.660000,-684.340267,46.658000,14.106250,46.594000,26.187019,
46.861000,-683.892400,46.853000,14.106250,46.788000,26.083173,
47.049000,-683.892400,47.047000,14.106250,46.982000,26.048558,
47.244000,-683.444533,47.241000,14.106250,47.177000,26.153686,
47.437000,-683.892400,47.436000,14.106250,47.371000,26.072062,
47.633000,-684.340267,47.630000,14.106250,47.566000,26.044854,
47.826000,-685.236000,47.825000,14.106250,47.760000,26.035785,
48.021000,-685.236000,48.019000,14.106250,47.955000,26.032762,
48.216000,-685.236000,48.213000,14.106250,48.149000,26.031754,
48.413000,-684.788133,48.408000,14.106250,48.343000,26.031418,
48.606000,-684.788133,48.602000,14.106250,48.538000,26.031306,
48.798000,-684.340267,48.797000,14.106250,48.732000,26.147935,
48.994000,-682.996667,48.991000,14.106250,48.927000,26.070145,
49.187000,-682.996667,49.186000,14.106250,49.121000,26.044215,
49.382000,-682.100933,49.380000,13.972917,49.316000,26.152238,
49.576000,-681.205200,49.574000,14.061806,49.510000,26.071579,
49.771000,-680.757333,49.769000,14.091435,49.704000,26.161360,
49.966000,-680.309467,49.963000,14.101312,49.899000,26.074620,
50.164000,-678.518000,50.158000,14.104604,50.093000,26.045707,
50.354000,-677.622267,50.352000,13.972368,50.288000,26.036069,
50.548000,-676.278667,50.547000,14.061623,50.482000,26.032856,
50.742000,-676.726533,50.741000,14.091374,50.677000,26.031785,
50.942000,-676.726533,50.935000,14.101291,50.871000,26.031428,
51.131000,-676.726533,51.130000,13.971264,51.065000,26.031309,
51.326000,-676.278667,51.324000,14.061255,51.260000,26.031270,
51.521000,-676.726533,51.519000,14.091252,51.454000,26.031257,
51.715000,-676.278667,51.713000,14.101251,51.649000,26.031252,
51.910000,-674.935067,51.908000,13.971250,51.843000,26.031251,
52.103000,-676.278667,52.102000,14.061250,52.038000,26.031250,
52.297000,-677.174400,52.296000,13.957917,52.232000,26.031250,
52.495000,-678.070133,52.491000,13.923472,52.426000,26.031250,
52.687000,-677.174400,52.685000,13.911991,52.621000,26.031250,
52.884000,-676.726533,52.880000,14.041497,52.815000,26.031250,
53.083000,-677.174400,53.074000,14.084666,53.009000,26.031250,
53.274000,-676.278667,53.269000,14.099055,53.204000,26.031250,
53.466000,-677.174400,53.463000,14.103852,53.398000,26.031250,
53.659000,-676.726533,53.657000,13.972117,53.593000,26.147917,
53.853000,-676.726533,53.852000,13.907372,53.787000,26.165972,
54.050000,-675.382933,54.046000,14.019124,53.982000,26.055324,
54.245000,-674.935067,54.241000,14.056375,54.176000,26.018441,
54.440000,-674.487200,54.435000,14.089625,54.370000,26.026980,
54.631000,-675.830800,54.629000,13.946542,54.565000,26.008993,
54.825000,-676.278667,54.824000,14.053014,54.759000,26.023831,
55.020000,-675.830800,55.018000,13.955171,54.953000,26.028777,
55.214000,-674.935067,55.213000,13.922557,55.148000,26.147092,
55.408000,-675.830800,55.407000,14.045019,55.342000,26.069864,
55.607000,-674.935067,55.602000,14.085840,55.537000,26.044121,
55.797000,-675.382933,55.796000,14.099447,55.732000,26.035540,
55.992000,-675.830800,55.990000,14.103982,55.926000,26.032680,
56.187000,-675.830800,56.185000,13.951327,56.120000,26.010893,
56.382000,-675.830800,56.379000,14.033776,56.315000,26.003631,
56.577000,-675.830800,56.573000,14.061259,56.509000,26.001210,
56.770000,-674.935067,56.768000,13.957920,56.703000,26.021237,
56.965000,-674.935067,56.963000,13.923473,56.898000,26.027912,
57.161000,-674.935067,57.158000,13.911991,57.093000,26.030137,
57.353000,-674.487200,57.352000,13.908164,57.288000,26.030879,
57.549000,-673.591467,57.547000,13.906888,57.482000,26.031126,
57.743000,-673.143600,57.741000,13.906463,57.676000,26.031209,
57.944000,-672.695733,57.935000,13.906321,57.871000,26.031236,
58.131000,-671.800000,58.130000,14.039607,58.066000,26.031245,
58.326000,-672.695733,58.324000,13.950702,58.260000,26.031248,
58.524000,-673.143600,58.519000,13.921067,58.454000,26.031249,
58.715000,-673.591467,58.713000,13.911189,58.649000,26.147916,
58.911000,-674.487200,58.908000,13.907896,58.843000,26.186805,
59.105000,-675.382933,59.102000,13.906799,59.037000,26.083102,
59.297000,-674.935067,59.297000,13.906433,59.232000,26.048534,
59.493000,-673.591467,59.491000,13.885478,59.426000,26.016178,
59.687000,-673.143600,59.685000,13.878493,59.621000,26.005393,
59.881000,-674.039333,59.880000,13.876164,59.815000,26.001798,
60.076000,-674.487200,60.074000,13.875388,60.010000,26.000599,
60.271000,-674.487200,60.268000,13.875129,60.204000,26.000200,
60.465000,-675.382933,60.463000,14.008376,60.398000,26.000067,
60.659000,-676.726533,60.657000,13.919459,60.593000,26.000022,
