heat_flux_time_[ms],heat_flux_[W/m^2],thermocouple1_time_[ms],thermocouple1_[degC],thermocouple2_time_[ms],thermocouple2_[deg_C]
0.196000,306.923027,0.194000,23.506250,0.130000,24.106250,
0.391000,346.783160,0.389000,23.506250,0.325000,24.106250,
0.588000,377.685960,0.585000,23.372917,0.520000,24.106250,
0.788000,400.975027,0.779000,23.211806,0.715000,24.106250,
0.979000,419.337560,0.974000,23.024769,0.910000,24.106250,
1.174000,430.534227,1.170000,22.962423,1.105000,24.106250,
1.369000,443.522360,1.365000,22.808308,1.300000,24.106250,
1.562000,456.510493,1.559000,22.756936,1.495000,24.106250,
1.759000,461.884893,1.755000,22.606479,1.690000,24.106250,
1.952000,468.602893,1.949000,22.556326,1.885000,24.106250,
2.146000,473.977293,2.144000,22.406275,2.080000,24.106250,
2.343000,478.008093,2.339000,22.356258,2.275000,24.106250,
2.538000,481.591027,2.534000,22.339586,2.470000,24.106250,
2.733000,486.517560,2.729000,22.217362,2.665000,24.106250,
2.927000,487.413293,2.924000,22.176621,2.860000,24.106250,
3.123000,489.652627,3.119000,22.029707,3.055000,24.106250,
3.317000,491.891960,3.314000,21.980736,3.250000,24.106250,
3.513000,492.787693,3.509000,21.831079,3.445000,24.106250,
3.707000,490.996227,3.704000,21.781193,3.640000,24.106250,
3.901000,494.579160,3.899000,21.631231,3.835000,24.106250,
4.099000,495.027027,4.094000,21.581244,4.030000,24.106250,
4.294000,494.579160,4.291000,21.431248,4.226000,24.106250,
4.487000,494.579160,4.486000,21.381249,4.421000,24.106250,
4.684000,495.027027,4.680000,21.364583,4.616000,24.106250,
4.878000,494.579160,4.876000,21.225694,4.811000,24.106250,
5.074000,494.131293,5.070000,21.179398,5.006000,24.106250,
5.269000,492.787693,5.266000,21.163966,5.201000,24.106250,
5.463000,488.309027,5.460000,21.158822,5.396000,24.106250,
5.658000,486.069693,5.655000,21.040441,5.591000,24.106250,
5.854000,488.309027,5.851000,21.000980,5.786000,24.106250,
6.048000,482.934627,6.045000,20.987827,5.981000,24.106250,
6.245000,480.247427,6.240000,20.870942,6.176000,24.127083,
6.437000,484.278227,6.435000,20.831981,6.371000,24.134028,
6.634000,483.382493,6.630000,20.798160,6.566000,24.115509,
6.828000,476.216627,6.826000,20.786887,6.761000,24.109336,
7.024000,480.247427,7.020000,20.783129,6.956000,24.107279,
7.217000,474.873027,7.215000,20.781876,7.151000,24.106593,
7.414000,473.529427,7.410000,20.648125,7.346000,24.106364,
7.607000,477.112360,7.605000,20.603542,7.541000,24.106288,
7.803000,478.008093,7.800000,20.588681,7.736000,24.106263,
7.998000,476.216627,7.995000,20.583727,7.931000,24.106254,
8.193000,473.081560,8.190000,20.448742,8.126000,24.106251,
8.387000,473.081560,8.385000,20.403747,8.321000,24.222917,
8.583000,473.081560,8.581000,20.409582,8.516000,24.165972,
8.778000,472.185827,8.775000,20.411527,8.711000,24.146991,
8.974000,472.185827,8.970000,20.391342,8.905000,24.119830,
9.167000,469.498627,9.165000,20.251281,9.101000,24.110777,
9.361000,470.842227,9.361000,20.337927,9.296000,24.224426,
9.557000,469.050760,9.555000,20.233476,9.491000,24.145642,
9.755000,468.602893,9.750000,20.198659,9.686000,24.119381,
9.947000,467.259293,9.945000,20.187053,9.881000,24.227294,
10.144000,466.363560,10.140000,20.204018,10.075000,24.284098,
10.338000,466.363560,10.335000,20.209673,10.271000,24.303033,
10.538000,465.019960,10.530000,20.074058,10.466000,24.288511,
10.727000,463.228493,10.725000,20.028853,10.661000,24.167004,
10.922000,460.989160,10.920000,20.034618,10.856000,24.264001,
11.117000,454.719027,11.115000,20.015706,11.051000,24.275500,
11.313000,458.749827,11.310000,20.009402,11.246000,24.279333,
11.508000,458.301960,11.505000,20.007301,11.441000,24.280611,
11.704000,456.062627,11.700000,20.006600,11.636000,24.281037,
11.897000,455.614760,11.895000,20.006367,11.831000,24.281179,
12.092000,454.271160,12.090000,20.006289,12.026000,24.281226,
12.288000,452.479693,12.285000,19.872930,12.221000,24.281242,
12.483000,452.927560,12.480000,19.828477,12.416000,24.281247,
12.678000,446.657427,12.675000,19.813659,12.611000,24.281249,
12.874000,451.136093,12.870000,19.808720,12.806000,24.281250,
13.067000,450.240360,13.065000,19.807073,13.001000,24.281250,
13.267000,448.001027,13.260000,19.673191,13.196000,24.281250,
13.458000,450.240360,13.455000,19.628564,13.391000,24.281250,
13.653000,450.240360,13.650000,19.613688,13.586000,24.281250,
13.848000,446.657427,13.845000,19.608729,13.781000,24.281250,
14.044000,448.001027,14.040000,19.607076,13.976000,24.281250,
14.237000,443.970227,14.235000,19.606525,14.171000,24.281250,
14.434000,443.970227,14.430000,19.627175,14.366000,24.302083,
14.628000,443.074493,14.625000,19.634058,14.561000,24.309028,
14.823000,443.522360,14.820000,19.636353,14.756000,24.311343,
15.017000,442.178760,15.015000,19.637118,14.951000,24.312114,
15.213000,442.178760,15.210000,19.504039,15.146000,24.312371,
15.407000,440.387293,15.405000,19.459680,15.341000,24.312457,
15.601000,439.939427,15.600000,19.444893,15.536000,24.312486,
15.798000,440.387293,15.795000,19.439964,15.731000,24.312495,
15.992000,438.595827,15.990000,19.438321,15.926000,24.312498,
16.187000,436.804360,16.185000,19.437774,16.121000,24.312499,
16.383000,435.012893,16.380000,19.437591,16.316000,24.312500,
16.579000,432.325693,16.575000,19.283364,16.510000,24.291667,
16.772000,432.325693,16.770000,19.365288,16.706000,24.284722,
16.968000,432.773560,16.965000,19.259263,16.900000,24.282407,
17.164000,428.742760,17.160000,19.223921,17.096000,24.281636,
17.358000,431.429960,17.355000,19.212140,17.290000,24.281379,
17.553000,430.534227,17.550000,19.208213,17.485000,24.281293,
17.747000,428.742760,17.745000,19.206904,17.681000,24.281264,
17.944000,427.847027,17.940000,19.206468,17.876000,24.281255,
18.137000,426.055560,18.135000,19.227156,18.071000,24.302085,
18.334000,424.264093,18.330000,19.213219,18.266000,24.288195,
18.528000,424.711960,18.525000,19.229406,18.461000,24.304398,
18.722000,424.264093,18.720000,19.213969,18.655000,24.288966,
18.918000,422.472627,18.915000,19.208823,18.850000,24.283822,
19.112000,422.472627,19.110000,19.207108,19.046000,24.282107,
19.308000,422.024760,19.305000,19.089869,19.240000,24.281536,
19.503000,418.889693,19.500000,19.050790,19.435000,24.281345,
19.698000,419.785427,19.695000,19.037763,19.630000,24.281282,
19.893000,418.441827,19.890000,19.033421,19.825000,24.281261,
20.087000,418.889693,20.085000,19.031974,20.020000,24.281254,
20.283000,418.441827,20.280000,19.031491,20.215000,24.281251,
20.478000,417.098227,20.475000,19.031330,20.411000,24.281250,
20.674000,416.650360,20.670000,19.031277,20.605000,24.281250,
20.869000,415.306760,20.865000,19.031259,20.800000,24.281250,
21.062000,413.515293,21.060000,19.031253,20.995000,24.281250,
21.260000,414.858893,21.255000,19.031251,21.190000,24.281250,
21.452000,412.619560,21.450000,19.031250,21.385000,24.281250,
21.648000,411.275960,21.646000,19.031250,21.580000,24.414583,
21.845000,411.275960,21.841000,19.031250,21.776000,24.459028,
22.039000,409.484493,22.036000,19.031250,21.972000,24.473843,
22.234000,409.932360,22.231000,19.031250,22.167000,24.478781,
22.428000,409.036627,22.426000,19.031250,22.361000,24.480427,
22.629000,409.036627,22.621000,19.031250,22.556000,24.347642,
22.819000,407.693027,22.816000,19.031250,22.751000,24.436714,
23.014000,407.693027,23.011000,18.897917,22.946000,24.466405,
23.212000,405.901560,23.206000,18.986806,23.142000,24.476302,
23.405000,405.453693,23.401000,18.883102,23.337000,24.479601,
23.598000,405.005827,23.596000,18.981867,23.532000,24.480700,
23.794000,405.005827,23.791000,18.881456,23.727000,24.481067,
23.989000,405.005827,23.986000,18.847985,23.922000,24.481189,
24.185000,404.110093,24.181000,18.836828,24.117000,24.481230,
24.379000,401.422893,24.376000,18.833109,24.311000,24.481243,
24.575000,400.527160,24.571000,18.831870,24.506000,24.481248,
24.769000,400.975027,24.766000,18.831457,24.701000,24.481249,
24.965000,400.527160,24.961000,18.831319,24.896000,24.481250,
25.158000,400.527160,25.156000,18.831273,25.091000,24.481250,
25.355000,399.183560,25.351000,18.831258,25.287000,24.481250,
25.550000,397.839960,25.546000,18.831253,25.482000,24.481250,
25.745000,396.944227,25.741000,18.831251,25.677000,24.481250,
25.938000,396.048493,25.936000,18.831250,25.872000,24.481250,
26.135000,395.600627,26.131000,18.831250,26.067000,24.481250,
26.328000,393.809160,26.326000,18.831250,26.262000,24.481250,
26.525000,393.361293,26.521000,18.831250,26.457000,24.481250,
26.718000,392.465560,26.716000,18.831250,26.652000,24.481250,
26.913000,392.017693,26.911000,18.831250,26.847000,24.481250,
27.110000,389.778360,27.106000,18.831250,27.042000,24.481250,
27.305000,390.674093,27.301000,18.831250,27.237000,24.481250,
27.498000,391.569827,27.496000,18.697917,27.432000,24.481250,
27.694000,391.121960,27.691000,18.786806,27.627000,24.481250,
27.888000,389.330493,27.886000,18.816435,27.821000,24.481250,
28.083000,389.778360,28.081000,18.692978,28.016000,24.481250,
28.278000,388.882627,28.276000,18.785159,28.212000,24.481250,
28.476000,387.986893,28.471000,18.815886,28.407000,24.481250,
28.669000,387.986893,28.666000,18.692795,28.602000,24.481250,
28.886000,387.091160,28.861000,18.785098,28.797000,24.481250,
29.058000,387.539027,29.056000,18.682533,28.992000,24.481250,
29.254000,386.643293,29.251000,18.648344,29.187000,24.481250,
29.448000,385.299693,29.446000,18.636948,29.382000,24.481250,
29.643000,385.299693,29.641000,18.633149,29.577000,24.481250,
29.839000,384.403960,29.836000,18.631883,29.772000,24.481250,
30.035000,385.299693,30.031000,18.631461,29.967000,24.481250,
30.227000,384.403960,30.226000,18.631320,30.162000,24.481250,
30.426000,383.060360,30.421000,18.631273,30.357000,24.481250,
30.619000,383.956093,30.616000,18.631258,30.552000,24.614583,
30.816000,381.716760,30.811000,18.631253,30.747000,24.525694,
31.013000,380.821027,31.006000,18.631251,30.941000,24.496065,
31.205000,379.925293,31.201000,18.631250,31.137000,24.486188,
31.399000,379.029560,31.396000,18.631250,31.332000,24.482896,
31.599000,378.581693,31.591000,18.631250,31.527000,24.615132,
31.789000,379.029560,31.786000,18.631250,31.722000,24.659211,
31.986000,374.103027,31.981000,18.631250,31.917000,24.540570,
32.179000,377.685960,32.176000,18.631250,32.112000,24.501023,
32.375000,374.550893,32.371000,18.631250,32.307000,24.621174,
32.569000,372.311560,32.566000,18.631250,32.502000,24.527891,
32.767000,372.759427,32.761000,18.631250,32.697000,24.630130,
32.959000,373.655160,32.956000,18.631250,32.892000,24.664210,
33.156000,374.998760,33.151000,18.631250,33.087000,24.542237,
33.348000,374.103027,33.346000,18.631250,33.282000,24.634912,
33.546000,372.759427,33.541000,18.631250,33.477000,24.665804,
33.739000,372.311560,33.736000,18.631250,33.672000,24.676101,
33.944000,372.311560,33.931000,18.631250,33.867000,24.679534,
34.129000,372.759427,34.126000,18.631250,34.062000,24.547345,
34.326000,370.520093,34.321000,18.631250,34.257000,24.636615,
34.518000,368.728627,34.516000,18.631250,34.451000,24.666372,
34.716000,367.832893,34.711000,18.631250,34.647000,24.676291,
34.909000,366.489293,34.906000,18.631250,34.842000,24.679597,
35.108000,366.489293,35.101000,18.631250,35.036000,24.680699,
35.299000,365.593560,35.296000,18.631250,35.232000,24.681066,
35.496000,364.697827,35.491000,18.631250,35.427000,24.681189,
35.688000,364.697827,35.686000,18.631250,35.622000,24.681230,
35.884000,363.802093,35.881000,18.631250,35.817000,24.681243,
36.093000,363.802093,36.076000,18.631250,36.012000,24.681248,
36.276000,362.906360,36.272000,18.631250,36.207000,24.681249,
36.469000,363.354227,36.466000,18.631250,36.402000,24.681250,
36.666000,363.354227,36.661000,18.631250,36.597000,24.681250,
36.859000,362.010627,36.856000,18.631250,36.792000,24.681250,
37.055000,364.697827,37.051000,18.631250,36.986000,24.681250,
37.248000,362.458493,37.246000,18.631250,37.182000,24.681250,
37.447000,362.010627,37.441000,18.631250,37.377000,24.681250,
37.638000,362.010627,37.636000,18.631250,37.572000,24.681250,
37.836000,357.531960,37.832000,18.631250,37.767000,24.681250,
38.028000,358.427693,38.026000,18.631250,37.962000,24.681250,
38.225000,360.219160,38.222000,18.631250,38.156000,24.681250,
38.419000,357.531960,38.416000,18.631250,38.352000,24.681250,
38.616000,357.979827,38.612000,18.631250,38.547000,24.681250,
38.809000,357.979827,38.806000,18.631250,38.742000,24.681250,
39.006000,356.636227,39.002000,18.631250,38.937000,24.681250,
39.198000,357.531960,39.197000,18.631250,39.133000,24.681250,
39.395000,357.979827,39.392000,18.631250,39.328000,24.681250,
39.589000,359.323427,39.587000,18.631250,39.523000,24.681250,
39.784000,358.875560,39.783000,18.631250,39.718000,24.681250,
39.980000,358.875560,39.977000,18.631250,39.913000,24.681250,
40.176000,359.771293,40.173000,18.631250,40.108000,24.681250,
40.370000,357.979827,40.367000,18.497917,40.303000,24.681250,
40.564000,359.323427,40.562000,18.474306,40.498000,24.702083,
40.760000,359.771293,40.757000,18.599769,40.693000,24.709028,
40.954000,358.875560,40.952000,18.508256,40.888000,24.711343,
41.149000,357.084093,41.147000,18.477752,41.083000,24.712114,
41.346000,354.844760,41.342000,18.467584,41.278000,24.712371,
41.540000,353.949027,41.537000,18.464195,41.473000,24.712457,
41.737000,351.709693,41.732000,18.463065,41.668000,24.712486,
41.928000,350.813960,41.927000,18.462688,41.863000,24.712495,
42.123000,351.709693,42.122000,18.462563,42.058000,24.712498,
42.320000,350.366093,42.317000,18.462521,42.252000,24.712499,
42.514000,352.605427,42.512000,18.462507,42.447000,24.712500,
42.709000,352.157560,42.707000,18.462502,42.642000,24.712500,
42.904000,352.605427,42.902000,18.462501,42.837000,24.712500,
43.098000,352.157560,43.097000,18.462500,43.032000,24.712500,
43.295000,351.261827,43.292000,18.462500,43.227000,24.712500,
43.489000,349.470360,43.487000,18.462500,43.422000,24.712500,
43.686000,349.022493,43.682000,18.441667,43.618000,24.691667,
43.878000,349.022493,43.877000,18.434722,43.812000,24.684722,
44.077000,347.231027,44.072000,18.432407,44.007000,24.682407,
44.269000,345.887427,44.267000,18.431636,44.202000,24.681636,
44.466000,345.439560,44.462000,18.431379,44.397000,24.681379,
44.660000,342.304493,44.657000,18.431293,44.592000,24.681293,
44.857000,339.169427,44.852000,18.564598,44.787000,24.681264,
45.050000,339.169427,45.047000,18.475699,44.982000,24.681255,
45.248000,340.513027,45.242000,18.446066,45.177000,24.681252,
45.439000,340.960893,45.437000,18.436189,45.372000,24.681251,
45.634000,339.617293,45.632000,18.566230,45.567000,24.681250,
45.829000,338.273693,45.827000,18.609577,45.762000,24.681250,
46.030000,336.930093,46.022000,18.624026,45.957000,24.681250,
46.220000,337.825827,46.217000,18.628842,46.152000,24.681250,
46.416000,338.721560,46.412000,18.497114,46.347000,24.681250,
46.609000,336.930093,46.607000,18.607371,46.542000,24.702083,
46.807000,332.003560,46.802000,18.644124,46.737000,24.709028,
46.999000,339.617293,46.997000,18.523041,46.932000,24.711343,
47.197000,338.273693,47.192000,18.616014,47.127000,24.712114,
47.389000,337.825827,47.387000,18.626171,47.322000,24.691538,
47.585000,337.825827,47.582000,18.629557,47.517000,24.684679,
47.779000,336.930093,47.777000,18.651519,47.712000,24.703226,
47.976000,336.034360,47.972000,18.658840,47.907000,24.709409,
48.169000,336.034360,48.167000,18.527947,48.102000,24.711470,
48.366000,337.377960,48.362000,18.484316,48.297000,24.712157,
48.559000,337.825827,48.557000,18.469772,48.492000,24.712386,
48.759000,336.034360,48.752000,18.464924,48.687000,24.712462,
48.951000,334.690760,48.947000,18.463308,48.882000,24.712487,
49.146000,333.347160,49.142000,18.596103,49.077000,24.712496,
49.339000,334.242893,49.337000,18.640368,49.272000,24.712499,
49.537000,333.347160,49.532000,18.521789,49.467000,24.712500,
49.729000,332.003560,49.727000,18.482263,49.662000,24.712500,
49.927000,328.420627,49.922000,18.602421,49.857000,24.712500,
50.119000,334.690760,50.117000,18.509140,50.052000,24.712500,
50.321000,336.034360,50.312000,18.611380,50.247000,24.712500,
50.509000,336.482227,50.506000,18.512127,50.442000,24.712500,
50.732000,336.930093,50.701000,18.612376,50.637000,24.712500,
50.899000,337.825827,50.897000,18.491625,50.832000,24.825000,
51.097000,337.377960,51.092000,18.451375,51.027000,24.729167,
51.290000,333.795027,51.287000,18.437958,51.222000,24.697222,
51.485000,336.930093,51.482000,18.433486,51.417000,24.819907,
51.678000,337.825827,51.677000,18.565329,51.612000,24.860802,
51.876000,337.825827,51.872000,18.475943,51.807000,24.741101,
52.070000,337.377960,52.067000,18.446148,52.002000,24.834534,
52.264000,339.169427,52.262000,18.436216,52.197000,24.865678,
52.459000,337.825827,52.456000,18.432905,52.392000,24.876059,
52.655000,332.003560,52.652000,18.431802,52.587000,24.746186,
52.852000,336.930093,52.847000,18.431434,52.781000,24.836229,
53.045000,336.482227,53.042000,18.431311,52.977000,24.732910,
53.239000,337.377960,53.237000,18.431270,53.172000,24.698470,
53.434000,337.377960,53.432000,18.431257,53.367000,24.686990,
53.629000,333.795027,53.627000,18.431252,53.562000,24.816497,
53.826000,332.451427,53.822000,18.431251,53.758000,24.726332,
54.019000,336.930093,54.016000,18.431250,53.952000,24.696277,
54.219000,333.795027,54.212000,18.431250,54.147000,24.819592,
54.409000,336.930093,54.407000,18.431250,54.342000,24.727364,
54.606000,336.482227,54.602000,18.431250,54.537000,24.829955,
54.798000,337.377960,54.797000,18.431250,54.732000,24.864152,
54.996000,337.825827,54.992000,18.431250,54.927000,24.742217,
55.189000,336.034360,55.187000,18.452083,55.122000,24.722406,
55.385000,334.242893,55.382000,18.438194,55.317000,24.828302,
55.581000,333.795027,55.577000,18.433565,55.512000,24.730267,
55.788000,333.347160,55.772000,18.452855,55.707000,24.718422,
55.969000,332.899293,55.967000,18.438452,55.902000,24.693641,
56.166000,331.555693,56.162000,18.433651,56.097000,24.685380,
56.358000,331.107827,56.357000,18.432050,56.292000,24.682627,
56.555000,330.659960,56.552000,18.431517,56.487000,24.815042,
56.750000,326.181293,56.748000,18.431339,56.683000,24.725847,
56.944000,327.077027,56.943000,18.431280,56.878000,24.829449,
57.140000,326.629160,57.138000,18.431260,57.073000,24.863983,
57.336000,329.316360,57.333000,18.431253,57.268000,24.875494,
57.530000,330.212093,57.528000,18.431251,57.463000,24.745998,
57.726000,330.212093,57.723000,18.431250,57.657000,24.702833,
57.919000,330.659960,57.918000,18.431250,57.853000,24.688444,
58.114000,330.659960,58.113000,18.431250,58.048000,24.683648,
58.310000,331.555693,58.308000,18.431250,58.243000,24.815383,
58.506000,332.451427,58.503000,18.431250,58.438000,24.859294,
58.698000,332.899293,58.698000,18.452083,58.633000,24.894765,
58.896000,331.555693,58.893000,18.459028,58.828000,24.773255,
59.090000,332.899293,59.087000,18.461343,59.023000,24.732752,
59.284000,330.659960,59.283000,18.462114,59.218000,24.719251,
59.480000,330.212093,59.477000,18.462371,59.413000,24.848084,
59.676000,330.212093,59.673000,18.462457,59.608000,24.891028,
59.870000,331.555693,59.867000,18.462486,59.803000,24.772009,
60.067000,331.107827,60.063000,18.462495,59.998000,24.865670,
60.260000,332.003560,60.257000,18.462498,60.193000,24.763557,
60.457000,332.003560,60.453000,18.462499,60.388000,24.862852,
60.649000,332.003560,60.647000,18.462500,60.583000,24.895951,
60.870000,331.555693,60.842000,18.462500,60.777000,24.906984,
61.039000,331.555693,61.037000,18.462500,60.972000,24.777328,
61.235000,330.659960,61.232000,18.462500,61.167000,24.734109,
61.430000,330.212093,61.427000,18.462500,61.362000,24.719703,
61.627000,329.764227,61.622000,18.462500,61.557000,24.848234,
61.819000,331.555693,61.817000,18.462500,61.752000,24.757745,
