heat_flux_time_[ms],heat_flux_[W/m^2],thermocouple1_time_[ms],thermocouple1_[degC],thermocouple2_time_[ms],thermocouple2_[deg_C]
0.195000,367.698533,0.193000,23.693750,0.128000,24.293750,
0.396000,407.558667,0.388000,23.560417,0.323000,24.293750,
0.587000,438.909333,0.583000,23.265972,0.518000,24.293750,
0.783000,463.094133,0.778000,23.034491,0.713000,24.293750,
0.977000,482.352400,0.973000,22.957330,0.908000,24.293750,
1.172000,497.579867,1.169000,22.798277,1.103000,24.293750,
1.368000,509.672267,1.363000,22.611926,1.298000,24.160417,
1.562000,519.077467,1.558000,22.549809,1.493000,24.249306,
1.757000,526.691200,1.753000,22.412436,1.688000,24.278935,
1.952000,533.409200,1.948000,22.366645,1.883000,24.288812,
2.147000,536.992133,2.143000,22.218048,2.078000,24.292104,
2.340000,542.366533,2.338000,22.035183,2.273000,24.159868,
2.537000,544.605867,2.533000,21.974228,2.468000,24.249123,
2.733000,547.293067,2.728000,21.820576,2.663000,24.278874,
2.928000,549.980267,2.923000,21.636025,2.858000,24.288791,
3.120000,551.323867,3.118000,21.574508,3.053000,24.158764,
3.316000,551.771733,3.313000,21.554003,3.248000,24.248755,
3.511000,552.667467,3.508000,21.413834,3.443000,24.278752,
3.707000,552.667467,3.703000,21.367111,3.638000,24.288751,
3.900000,552.667467,3.898000,21.234870,3.833000,24.292084,
4.096000,552.667467,4.093000,21.190790,4.028000,24.293195,
4.291000,551.771733,4.288000,21.042763,4.223000,24.293565,
4.485000,552.219600,4.483000,20.993421,4.418000,24.293688,
4.680000,551.323867,4.678000,20.976974,4.613000,24.293729,
4.875000,550.876000,4.873000,20.971491,4.808000,24.293743,
5.070000,550.428133,5.068000,20.969664,5.003000,24.293748,
5.267000,549.532400,5.263000,20.835721,5.198000,24.293749,
5.460000,549.980267,5.459000,20.791074,5.393000,24.293750,
5.657000,549.084533,5.653000,20.776191,5.588000,24.293750,
5.850000,549.084533,5.847000,20.637897,5.783000,24.293750,
6.047000,546.845200,6.042000,20.591799,5.978000,24.293750,
6.240000,547.293067,6.237000,20.576433,6.173000,24.293750,
6.437000,546.397333,6.433000,20.571311,6.368000,24.293750,
6.630000,543.262267,6.627000,20.569604,6.563000,24.293750,
6.828000,539.679333,6.823000,20.435701,6.758000,24.293750,
7.021000,541.470800,7.018000,20.391067,6.953000,24.293750,
7.217000,542.366533,7.213000,20.376189,7.148000,24.293750,
7.411000,541.022933,7.407000,20.371230,7.343000,24.293750,
7.607000,538.783600,7.603000,20.369577,7.538000,24.293750,
7.816000,538.335733,7.797000,20.369026,7.733000,24.293750,
7.998000,537.440000,7.993000,20.252175,7.928000,24.293750,
8.191000,536.992133,8.187000,20.213225,8.123000,24.293750,
8.387000,536.544267,8.383000,20.200242,8.318000,24.293750,
8.579000,535.200667,8.577000,20.195914,8.513000,24.293750,
8.777000,533.857067,8.773000,20.194471,8.708000,24.293750,
8.970000,532.961333,8.967000,20.060657,8.903000,24.293750,
9.184000,532.513467,9.163000,20.016052,9.098000,24.293750,
9.361000,531.169867,9.357000,20.001184,9.293000,24.293750,
9.557000,529.378400,9.554000,19.996228,9.488000,24.293750,
9.751000,528.034800,9.748000,19.994576,9.684000,24.293750,
9.946000,527.139067,9.943000,19.860692,9.878000,24.293750,
10.142000,526.243333,10.138000,19.816064,10.074000,24.293750,
10.338000,524.899733,10.334000,19.801188,10.269000,24.293750,
10.530000,524.004000,10.528000,19.796229,10.464000,24.410417,
10.727000,521.764667,10.723000,19.794576,10.659000,24.332639,
10.922000,521.316800,10.918000,19.794025,10.854000,24.306713,
11.118000,520.421067,11.113000,19.793842,11.048000,24.298071,
11.310000,518.629600,11.308000,19.793781,11.244000,24.411857,
11.506000,518.629600,11.503000,19.660427,11.439000,24.449786,
11.701000,516.838133,11.698000,19.615976,11.634000,24.345762,
11.898000,514.598800,11.893000,19.601159,11.829000,24.311087,
12.091000,515.046667,12.088000,19.596220,12.024000,24.299529,
12.288000,513.255200,12.283000,19.594573,12.219000,24.412343,
12.480000,512.359467,12.478000,19.594024,12.414000,24.449948,
12.674000,510.568000,12.673000,19.593841,12.609000,24.345816,
12.871000,509.224400,12.868000,19.460447,12.804000,24.311105,
13.068000,508.776533,13.064000,19.415982,12.998000,24.416202,
13.259000,507.432933,13.258000,19.534494,13.194000,24.451234,
13.458000,506.537200,13.453000,19.440665,13.388000,24.462911,
13.651000,505.193600,13.648000,19.409388,13.583000,24.466804,
13.845000,504.297867,13.843000,19.398963,13.779000,24.468101,
14.039000,503.850000,14.038000,19.395488,13.973000,24.468534,
14.238000,503.850000,14.233000,19.394329,14.168000,24.468678,
14.430000,500.267067,14.428000,19.277276,14.364000,24.468726,
14.625000,502.506400,14.623000,19.238259,14.558000,24.468742,
14.820000,502.058533,14.818000,19.341920,14.754000,24.468747,
15.018000,500.714933,15.013000,19.259807,14.949000,24.468749,
15.209000,499.371333,15.208000,19.232436,15.143000,24.468750,
15.407000,498.923467,15.403000,19.223312,15.338000,24.468750,
15.600000,494.892667,15.598000,19.220271,15.533000,24.468750,
15.797000,498.027733,15.793000,19.219257,15.728000,24.468750,
15.990000,497.132000,15.988000,19.218919,15.923000,24.468750,
16.184000,492.653333,16.183000,19.218806,16.118000,24.468750,
16.380000,495.788400,16.378000,19.218769,16.313000,24.468750,
16.577000,494.892667,16.573000,19.218756,16.508000,24.468750,
16.771000,493.549067,16.768000,19.218752,16.703000,24.468750,
16.967000,492.205467,16.963000,19.218751,16.898000,24.468750,
17.160000,491.309733,17.158000,19.218750,17.093000,24.468750,
17.358000,490.861867,17.353000,19.218750,17.288000,24.468750,
17.550000,489.966133,17.548000,19.085417,17.483000,24.468750,
17.748000,489.518267,17.743000,19.040972,17.678000,24.468750,
17.941000,483.248133,17.938000,19.026157,17.873000,24.468750,
18.136000,479.665200,18.133000,19.021219,18.068000,24.468750,
18.329000,485.487467,18.328000,19.019573,18.263000,24.468750,
18.525000,485.039600,18.523000,19.019024,18.458000,24.468750,
18.722000,484.591733,18.718000,19.018841,18.653000,24.468750,
18.933000,484.591733,18.913000,19.018780,18.848000,24.468750,
19.112000,482.352400,19.108000,19.018760,19.043000,24.468750,
19.306000,481.008800,19.303000,19.018753,19.238000,24.468750,
19.500000,480.560933,19.498000,19.018751,19.433000,24.468750,
19.694000,480.113067,19.693000,19.018750,19.628000,24.468750,
19.890000,480.113067,19.888000,19.018750,19.823000,24.468750,
20.087000,479.665200,20.083000,18.997917,20.018000,24.447917,
20.280000,479.217333,20.278000,19.011806,20.213000,24.461806,
20.477000,478.321600,20.473000,19.016435,20.408000,24.466435,
20.670000,478.321600,20.668000,19.017978,20.603000,24.467978,
20.864000,477.425867,20.862000,18.885159,20.798000,24.468493,
21.062000,476.530133,21.058000,18.840886,20.993000,24.468664,
21.263000,476.082267,21.253000,18.826129,21.188000,24.468721,
21.451000,474.290800,21.448000,18.954543,21.383000,24.468740,
21.647000,474.738667,21.643000,18.864014,21.578000,24.468747,
21.839000,475.186533,21.837000,18.833838,21.773000,24.468749,
22.037000,472.947200,22.033000,18.823779,21.967000,24.468750,
22.231000,471.155733,22.228000,18.820426,22.163000,24.468750,
22.428000,472.947200,22.423000,18.819309,22.358000,24.468750,
22.621000,472.499333,22.618000,18.818936,22.553000,24.468750,
22.816000,470.260000,22.813000,18.818812,22.748000,24.468750,
23.011000,468.020667,23.008000,18.818771,22.943000,24.468750,
23.211000,467.124933,23.203000,18.818757,23.138000,24.468750,
23.401000,467.572800,23.398000,18.818752,23.333000,24.468750,
23.594000,468.020667,23.592000,18.818751,23.528000,24.468750,
23.792000,466.229200,23.788000,18.818750,23.722000,24.468750,
23.988000,463.542000,23.983000,18.818750,23.918000,24.468750,
24.181000,464.437733,24.178000,18.818750,24.113000,24.468750,
24.377000,463.094133,24.373000,18.685417,24.308000,24.468750,
24.569000,462.646267,24.568000,18.774306,24.503000,24.468750,
24.767000,461.750533,24.763000,18.670602,24.698000,24.468750,
24.961000,462.646267,24.957000,18.769367,24.893000,24.468750,
25.159000,461.750533,25.153000,18.802289,25.088000,24.468750,
25.356000,459.959067,25.347000,18.679930,25.283000,24.468750,
25.547000,459.063333,25.543000,18.639143,25.478000,24.468750,
25.738000,458.615467,25.737000,18.758881,25.673000,24.468750,
25.938000,458.167600,25.933000,18.644627,25.868000,24.447917,
26.130000,457.271867,26.127000,18.606542,26.063000,24.440972,
26.327000,456.824000,26.322000,18.593847,26.258000,24.438657,
26.519000,456.376133,26.517000,18.589616,26.453000,24.571219,
26.717000,455.480400,26.713000,18.588205,26.648000,24.482073,
26.910000,456.376133,26.907000,18.587735,26.843000,24.585691,
27.108000,456.376133,27.104000,18.587578,27.038000,24.486897,
27.300000,456.376133,27.298000,18.587526,27.233000,24.587299,
27.499000,456.824000,27.494000,18.587509,27.428000,24.487433,
27.690000,455.928267,27.688000,18.587503,27.623000,24.454144,
27.888000,455.032533,27.883000,18.587501,27.818000,24.576381,
28.079000,455.928267,28.078000,18.587500,28.013000,24.617127,
28.278000,455.480400,28.273000,18.587500,28.208000,24.630709,
28.470000,455.480400,28.468000,18.587500,28.403000,24.635236,
28.668000,455.928267,28.663000,18.587500,28.598000,24.503412,
28.860000,454.136800,28.858000,18.587500,28.793000,24.592804,
29.058000,451.449600,29.053000,18.587500,28.988000,24.489268,
29.250000,450.553867,29.248000,18.587500,29.183000,24.588089,
29.447000,451.449600,29.443000,18.587500,29.378000,24.621030,
29.641000,452.345333,29.638000,18.587500,29.573000,24.632010,
29.834000,451.897467,29.832000,18.587500,29.768000,24.635670,
30.029000,450.553867,30.027000,18.454167,29.963000,24.636890,
30.225000,450.553867,30.222000,18.543056,30.158000,24.637297,
30.419000,449.658133,30.417000,18.572685,30.353000,24.637432,
30.617000,450.106000,30.613000,18.582562,30.548000,24.637477,
30.808000,449.658133,30.807000,18.585854,30.743000,24.637492,
31.004000,449.210267,31.002000,18.586951,30.938000,24.637497,
31.199000,447.866667,31.197000,18.587317,31.133000,24.637499,
31.398000,446.075200,31.393000,18.454106,31.328000,24.637500,
31.590000,446.970933,31.587000,18.409702,31.522000,24.637500,
31.786000,446.075200,31.782000,18.528234,31.717000,24.637500,
31.979000,444.731600,31.977000,18.567745,31.913000,24.637500,
32.178000,444.283733,32.173000,18.580915,32.108000,24.637500,
32.368000,445.179467,32.367000,18.451972,32.302000,24.637500,
32.564000,444.731600,32.562000,18.408991,32.497000,24.637500,
32.759000,443.835867,32.757000,18.394664,32.692000,24.637500,
32.954000,443.388000,32.952000,18.389888,32.887000,24.637500,
33.149000,444.283733,33.147000,18.521629,33.082000,24.637500,
33.350000,443.388000,33.342000,18.432210,33.277000,24.637500,
33.539000,441.596533,33.537000,18.402403,33.472000,24.637500,
33.733000,441.148667,33.732000,18.392468,33.667000,24.637500,
33.930000,441.596533,33.927000,18.389156,33.862000,24.637500,
34.128000,439.805067,34.122000,18.388052,34.057000,24.637500,
34.319000,441.148667,34.317000,18.387684,34.252000,24.637500,
34.513000,441.148667,34.512000,18.387561,34.447000,24.637500,
34.710000,440.252933,34.707000,18.387520,34.642000,24.637500,
34.903000,440.700800,34.902000,18.387507,34.837000,24.637500,
35.099000,441.148667,35.097000,18.387502,35.032000,24.637500,
35.296000,439.805067,35.292000,18.387501,35.227000,24.637500,
35.490000,439.357200,35.487000,18.387500,35.422000,24.637500,
35.686000,438.909333,35.682000,18.387500,35.617000,24.637500,
35.877000,437.117867,35.876000,18.387500,35.812000,24.637500,
36.076000,436.222133,36.072000,18.387500,36.007000,24.637500,
36.268000,435.774267,36.266000,18.387500,36.202000,24.637500,
36.466000,433.087067,36.462000,18.387500,36.397000,24.637500,
36.659000,434.878533,36.656000,18.387500,36.592000,24.637500,
36.856000,435.774267,36.852000,18.387500,36.787000,24.637500,
37.048000,436.222133,37.046000,18.387500,36.982000,24.637500,
37.246000,436.222133,37.242000,18.387500,37.177000,24.637500,
37.447000,434.878533,37.436000,18.387500,37.372000,24.637500,
37.636000,434.430667,37.632000,18.387500,37.567000,24.637500,
37.829000,434.430667,37.826000,18.387500,37.762000,24.637500,
38.025000,434.878533,38.022000,18.387500,37.957000,24.637500,
38.220000,435.326400,38.216000,18.387500,38.152000,24.637500,
38.413000,433.982800,38.411000,18.387500,38.346000,24.637500,
38.609000,430.399867,38.606000,18.387500,38.542000,24.637500,
38.805000,430.399867,38.801000,18.254167,38.736000,24.637500,
38.997000,430.399867,38.996000,18.209722,38.931000,24.637500,
39.192000,430.847733,39.191000,18.194907,39.126000,24.637500,
39.389000,429.504133,39.386000,18.323302,39.321000,24.637500,
39.582000,428.160533,39.581000,18.232767,39.517000,24.637500,
39.778000,424.577600,39.776000,18.335922,39.711000,24.637500,
39.972000,424.129733,39.971000,18.236974,39.906000,24.637500,
40.168000,424.129733,40.166000,18.337325,40.102000,24.637500,
40.365000,425.025467,40.361000,18.370775,40.296000,24.637500,
40.559000,425.473333,40.556000,18.381925,40.491000,24.637500,
40.755000,424.129733,40.751000,18.385642,40.686000,24.637500,
40.947000,424.577600,40.945000,18.253547,40.881000,24.637500,
41.145000,423.234000,41.141000,18.209516,41.076000,24.637500,
41.342000,420.546800,41.336000,18.194839,41.271000,24.637500,
41.564000,421.442533,41.531000,18.189946,41.466000,24.637500,
41.729000,422.338267,41.725000,18.321649,41.660000,24.637500,
41.930000,421.890400,41.921000,18.232216,41.856000,24.637500,
42.117000,424.129733,42.115000,18.202405,42.050000,24.637500,
42.314000,424.129733,42.311000,18.192468,42.246000,24.637500,
42.508000,424.577600,42.505000,18.322489,42.441000,24.637500,
42.705000,422.786133,42.701000,18.232496,42.636000,24.637500,
42.897000,422.786133,42.895000,18.335832,42.831000,24.637500,
43.094000,421.442533,43.091000,18.236944,43.025000,24.637500,
43.287000,420.546800,43.285000,18.203981,43.221000,24.637500,
43.485000,419.203200,43.480000,18.326327,43.416000,24.637500,
43.678000,418.755333,43.675000,18.367109,43.611000,24.637500,
43.875000,419.203200,43.870000,18.380703,43.806000,24.637500,
44.068000,420.098933,44.065000,18.251901,44.000000,24.637500,
44.263000,420.994667,44.260000,18.208967,44.195000,24.637500,
44.457000,418.755333,44.455000,18.194656,44.390000,24.637500,
44.656000,419.203200,44.651000,18.189885,44.586000,24.637500,
44.848000,419.203200,44.846000,18.300795,44.781000,24.616667,
45.042000,419.203200,45.041000,18.204432,44.977000,24.609722,
45.237000,419.203200,45.236000,18.172311,45.171000,24.607407,
45.436000,418.755333,45.431000,18.161604,45.366000,24.606636,
45.629000,418.307467,45.626000,18.158035,45.561000,24.606379,
45.822000,418.755333,45.821000,18.156845,45.756000,24.606293,
46.017000,419.203200,46.016000,18.156448,45.951000,24.606264,
46.213000,418.755333,46.211000,18.156316,46.146000,24.739588,
46.408000,417.411733,46.406000,18.156272,46.341000,24.650696,
46.602000,416.516000,46.601000,18.156257,46.536000,24.621065,
46.798000,416.068133,46.796000,18.156252,46.731000,24.744522,
46.995000,414.724533,46.991000,18.156251,46.926000,24.652341,
47.187000,415.172400,47.186000,18.156250,47.121000,24.754947,
47.383000,414.276667,47.381000,18.156250,47.316000,24.655816,
47.577000,413.380933,47.576000,18.289583,47.511000,24.756105,
47.772000,414.276667,47.771000,18.200694,47.706000,24.789535,
47.968000,415.620267,47.966000,18.171065,47.902000,24.800678,
48.165000,414.724533,48.161000,18.182022,48.096000,24.691893,
48.359000,414.724533,48.356000,18.164841,48.291000,24.768131,
48.554000,415.620267,48.551000,18.179947,48.486000,24.814377,
48.748000,414.276667,48.746000,18.164149,48.681000,24.808959,
48.946000,415.172400,48.941000,18.158883,48.876000,24.807153,
49.141000,415.620267,49.136000,18.157128,49.070000,24.806551,
49.339000,414.724533,49.331000,18.156543,49.266000,24.806350,
49.531000,413.828800,49.526000,18.156348,49.461000,24.806283,
49.726000,414.276667,49.721000,18.156283,49.656000,24.806261,
49.919000,414.724533,49.915000,18.156261,49.851000,24.806254,
50.113000,414.276667,50.111000,18.156254,50.046000,24.806251,
50.308000,412.933067,50.306000,18.156251,50.240000,24.806250,
50.506000,412.485200,50.501000,18.156250,50.436000,24.806250,
50.699000,413.828800,50.696000,18.156250,50.631000,24.806250,
50.896000,414.276667,50.891000,18.156250,50.826000,24.806250,
51.088000,415.172400,51.087000,18.177083,51.021000,24.827083,
51.285000,415.172400,51.281000,18.184028,51.216000,24.834028,
51.479000,413.828800,51.475000,18.186343,51.411000,24.836343,
51.672000,412.933067,51.670000,18.187114,51.606000,24.837114,
51.867000,412.037333,51.865000,18.187371,51.801000,24.837371,
52.062000,411.589467,52.060000,18.187457,51.996000,24.704124,
52.258000,411.141600,52.255000,18.187486,52.191000,24.793041,
52.455000,411.589467,52.451000,18.070829,52.386000,24.689347,
52.646000,409.798000,52.645000,18.148610,52.581000,24.788116,
52.845000,411.589467,52.841000,18.174537,52.775000,24.821039,
53.039000,411.589467,53.035000,18.183179,52.971000,24.832013,
53.235000,412.037333,53.231000,18.186060,53.166000,24.835671,
53.427000,410.693733,53.425000,18.187020,53.361000,24.836890,
53.621000,411.141600,53.620000,18.187340,53.556000,24.837297,
53.819000,410.245867,53.815000,18.187447,53.751000,24.837432,
54.014000,410.693733,54.010000,18.187482,53.945000,24.837477,
54.213000,411.589467,54.205000,18.187494,54.140000,24.704159,
54.405000,412.037333,54.400000,18.187498,54.335000,24.659720,
54.600000,412.037333,54.595000,18.187499,54.530000,24.644907,
54.795000,411.589467,54.790000,18.187500,54.725000,24.639969,
54.989000,411.141600,54.985000,18.187500,54.920000,24.771656,
55.183000,411.589467,55.180000,18.187500,55.115000,24.815552,
55.377000,410.693733,55.375000,18.187500,55.310000,24.830184,
55.577000,410.693733,55.570000,18.187500,55.505000,24.835061,
55.769000,408.902267,55.765000,18.187500,55.700000,24.836687,
55.963000,406.662933,55.960000,18.187500,55.895000,24.703896,
56.159000,406.215067,56.154000,18.070833,56.090000,24.659632,
56.354000,406.662933,56.350000,18.148611,56.285000,24.778211,
56.555000,407.110800,56.545000,18.174537,56.480000,24.817737,
56.741000,408.006533,56.739000,18.183179,56.675000,24.830912,
56.937000,408.006533,56.934000,18.069393,56.870000,24.701971,
57.131000,408.006533,57.130000,18.148131,57.065000,24.792324,
57.327000,407.558667,57.324000,18.174377,57.260000,24.822441,
57.524000,406.215067,57.520000,18.183126,57.455000,24.832480,
57.718000,406.662933,57.714000,18.186042,57.650000,24.835827,
57.914000,407.110800,57.910000,18.187014,57.845000,24.836942,
58.107000,407.110800,58.104000,18.187338,58.040000,24.837314,
58.303000,405.767200,58.300000,18.187446,58.235000,24.837438,
58.498000,408.454400,58.494000,18.187482,58.430000,24.704146,
58.691000,407.110800,58.689000,18.187494,58.625000,24.793049,
58.886000,407.558667,58.884000,18.070831,58.820000,24.822683,
59.084000,406.215067,59.080000,18.031944,59.015000,24.832561,
59.279000,406.215067,59.274000,18.135648,59.209000,24.702520,
59.474000,405.767200,59.469000,18.053549,59.404000,24.792507,
59.670000,406.215067,59.664000,18.142850,59.599000,24.822502,
59.862000,406.662933,59.859000,18.055950,59.794000,24.832501,
60.057000,405.767200,60.054000,18.143650,59.989000,24.702500,
60.251000,405.319333,60.249000,18.172883,60.184000,24.792500,
60.447000,405.767200,60.444000,18.065961,60.379000,24.689167,
60.643000,405.767200,60.639000,18.030320,60.574000,24.654722,
60.845000,405.319333,60.834000,18.018440,60.768000,24.643241,
61.032000,405.319333,61.029000,18.014480,60.964000,24.772747,
61.225000,406.215067,61.224000,18.013160,61.159000,24.815916,
61.424000,405.767200,61.419000,18.012720,61.354000,24.830305,
61.617000,406.215067,61.614000,18.012573,61.549000,24.835102,
61.813000,406.662933,61.809000,18.012524,61.744000,24.703367,
