heat_flux_time_[ms],heat_flux_[W/m^2],thermocouple1_time_[ms],thermocouple1_[degC],thermocouple2_time_[ms],thermocouple2_[deg_C]
0.196000,455.032533,0.193000,24.687500,0.129000,25.687500,
0.394000,511.463733,0.389000,24.570833,0.324000,25.687500,
0.603000,556.698267,0.584000,24.265278,0.519000,25.687500,
0.784000,592.527600,0.779000,23.896759,0.714000,25.687500,
0.977000,620.743200,0.974000,23.523920,0.909000,25.687500,
1.173000,643.584400,1.169000,23.266307,1.104000,25.687500,
1.367000,661.946933,1.364000,23.047102,1.299000,25.687500,
1.563000,676.726533,1.559000,22.840701,1.494000,25.687500,
1.757000,689.266800,1.751000,22.655234,1.687000,25.687500,
1.947000,699.567733,1.943000,22.460078,1.880000,25.687500,
2.139000,708.077200,2.135000,22.261693,2.072000,25.687500,
2.331000,714.795200,2.328000,22.062231,2.264000,25.687500,
2.523000,720.169600,2.520000,21.995744,2.456000,25.687500,
2.714000,724.200400,2.712000,21.840248,2.648000,25.687500,
2.909000,727.335467,2.905000,21.655083,2.841000,25.687500,
3.099000,730.022667,3.097000,21.476694,3.033000,25.687500,
3.290000,731.814133,3.289000,21.283898,3.225000,25.687500,
3.484000,733.605600,3.481000,21.219633,3.418000,25.687500,
3.676000,734.949200,3.674000,21.085711,3.610000,25.708333,
3.868000,735.397067,3.866000,21.041070,3.803000,25.715278,
4.061000,736.292800,4.059000,20.892857,3.995000,25.717593,
4.252000,736.292800,4.251000,20.843452,4.188000,25.718364,
4.445000,735.844933,4.443000,20.672817,4.380000,25.697788,
4.638000,736.292800,4.636000,20.615939,4.572000,25.690929,
4.833000,735.844933,4.829000,20.480313,4.765000,25.688643,
5.023000,734.949200,5.021000,20.301771,4.957000,25.687881,
5.218000,732.709867,5.213000,20.242257,5.149000,25.687627,
5.407000,734.501333,5.405000,20.109919,5.342000,25.708376,
5.599000,733.605600,5.597000,20.044973,5.534000,25.694459,
5.791000,733.157733,5.790000,20.044158,5.726000,25.710653,
5.984000,731.366267,5.982000,19.889719,5.919000,25.695218,
6.179000,730.470533,6.175000,19.838240,6.111000,25.690073,
6.369000,729.126933,6.367000,19.687747,6.303000,25.688358,
6.561000,728.231200,6.559000,19.637582,6.496000,25.687786,
6.754000,726.887600,6.752000,19.504194,6.688000,25.687595,
6.946000,725.096133,6.944000,19.459731,6.881000,25.687532,
7.140000,723.752533,7.137000,19.444910,7.072000,25.687511,
7.333000,723.752533,7.329000,19.306637,7.265000,25.687504,
7.523000,722.856800,7.521000,19.260546,7.457000,25.687501,
7.732000,721.513200,7.713000,19.245182,7.649000,25.804167,
7.908000,719.721733,7.905000,19.106727,7.842000,25.726389,
8.101000,717.034533,8.098000,19.060576,8.034000,25.700463,
8.293000,713.899467,8.290000,19.045192,8.226000,25.691821,
8.486000,710.764400,8.482000,18.906731,8.419000,25.805607,
8.678000,709.868667,8.675000,18.860577,8.611000,25.843536,
8.869000,709.868667,8.867000,18.845192,8.803000,25.856179,
9.063000,708.525067,9.059000,18.840064,8.996000,25.860393,
9.253000,707.629333,9.251000,18.838355,9.188000,25.861798,
9.448000,704.494267,9.444000,18.704452,9.380000,25.862266,
9.638000,701.359200,9.636000,18.659817,9.572000,25.862422,
9.829000,701.807067,9.828000,18.511606,9.765000,25.862474,
10.025000,700.463467,10.021000,18.462202,9.957000,25.862491,
10.215000,702.254933,10.213000,18.445734,10.149000,25.862497,
10.411000,702.702800,10.405000,18.440245,10.342000,25.862499,
10.600000,703.150667,10.597000,18.321748,10.534000,25.862500,
10.790000,701.807067,10.789000,18.282249,10.726000,25.862500,
10.983000,700.463467,10.982000,18.269083,10.918000,25.862500,
11.175000,699.119867,11.174000,18.285528,11.111000,25.883333,
11.371000,698.224133,11.367000,18.136843,11.303000,25.869444,
11.562000,697.776267,11.559000,18.087281,11.495000,25.864815,
11.753000,697.776267,11.751000,18.070760,11.687000,25.863272,
11.945000,696.432667,11.943000,17.952753,11.880000,26.016924,
12.138000,693.745467,12.135000,17.892584,12.072000,26.047308,
12.333000,689.714667,12.328000,17.872528,12.264000,26.057436,
12.523000,686.579600,12.520000,17.865843,12.457000,26.060812,
12.716000,684.788133,12.713000,17.884448,12.648000,26.082771,
12.907000,682.996667,12.906000,17.736483,12.841000,26.069257,
13.104000,679.413733,13.100000,17.687161,13.036000,26.064752,
13.303000,677.622267,13.296000,17.670720,13.231000,26.063251,
13.494000,677.622267,13.491000,17.665240,13.426000,26.062750,
13.690000,677.174400,13.686000,17.663413,13.621000,26.062583,
13.885000,674.487200,13.880000,17.529471,13.816000,26.062528,
14.078000,671.800000,14.075000,17.484824,14.011000,26.062509,
14.274000,670.008533,14.270000,17.490775,14.206000,26.083336,
14.470000,667.769200,14.466000,17.471925,14.401000,26.069445,
14.664000,667.321333,14.660000,17.348975,14.596000,26.064815,
14.857000,665.082000,14.855000,17.307992,14.791000,26.063272,
15.054000,661.499067,15.050000,17.294331,14.986000,26.062757,
15.254000,659.707600,15.245000,17.289777,15.181000,26.062586,
15.443000,657.916133,15.440000,17.175759,15.376000,26.083362,
15.637000,656.572533,15.635000,17.271086,15.571000,26.223621,
15.831000,655.228933,15.830000,17.302862,15.766000,26.270374,
16.026000,652.093867,16.025000,17.180121,15.961000,26.285958,
16.224000,652.093867,16.220000,17.139207,16.156000,26.291153,
16.417000,650.302400,16.415000,17.125569,16.351000,26.292884,
16.614000,649.406667,16.611000,17.121023,16.546000,26.293461,
16.806000,646.719467,16.805000,16.986174,16.741000,26.293654,
17.003000,645.823733,17.000000,16.941225,16.936000,26.293718,
17.198000,644.928000,17.196000,16.926242,17.131000,26.293739,
17.397000,644.032267,17.391000,16.921247,17.327000,26.293746,
17.589000,643.584400,17.586000,16.919582,17.522000,26.293749,
17.784000,642.688667,17.781000,16.919027,17.717000,26.293750,
17.978000,641.792933,17.976000,16.918842,17.912000,26.293750,
18.174000,640.449333,18.171000,16.918781,18.106000,26.293750,
18.369000,639.105733,18.366000,16.785427,18.301000,26.293750,
18.567000,636.418533,18.561000,16.740976,18.497000,26.293750,
18.764000,633.731333,18.756000,16.726159,18.691000,26.293750,
18.956000,630.596267,18.951000,16.721220,18.887000,26.293750,
19.148000,623.430400,19.146000,16.719573,19.082000,26.293750,
19.345000,628.804800,19.341000,16.585691,19.277000,26.293750,
19.539000,628.804800,19.536000,16.541064,19.472000,26.293750,
19.736000,627.013333,19.731000,16.526188,19.667000,26.293750,
19.929000,624.326133,19.927000,16.521229,19.862000,26.293750,
20.126000,622.086800,20.122000,16.519576,20.057000,26.427083,
20.319000,620.295333,20.317000,16.519025,20.252000,26.338194,
20.517000,618.951733,20.512000,16.518842,20.447000,26.441898,
20.709000,617.608133,20.707000,16.402114,20.643000,26.476466,
20.904000,616.712400,20.902000,16.363205,20.837000,26.487989,
21.099000,614.920933,21.097000,16.350235,21.032000,26.491830,
21.300000,613.129467,21.292000,16.345912,21.228000,26.493110,
21.489000,610.442267,21.487000,16.344471,21.423000,26.493537,
21.684000,609.546533,21.682000,16.343990,21.618000,26.493679,
21.880000,608.650800,21.877000,16.343830,21.813000,26.493726,
22.078000,606.859333,22.073000,16.210443,22.008000,26.493742,
22.269000,604.172133,22.267000,16.165981,22.203000,26.493747,
22.468000,603.276400,22.463000,16.151160,22.398000,26.493749,
22.660000,601.932800,22.658000,16.146220,22.593000,26.627083,
22.858000,601.932800,22.853000,16.144573,22.788000,26.538194,
23.051000,601.484933,23.048000,16.144024,22.983000,26.508565,
23.247000,600.589200,23.243000,16.143841,23.178000,26.632022,
23.440000,598.349867,23.438000,16.143780,23.373000,26.673174,
23.641000,597.902000,23.634000,16.143760,23.569000,26.686891,
23.831000,598.349867,23.828000,16.010420,23.764000,26.691464,
24.029000,599.245600,24.024000,15.965973,23.959000,26.692988,
24.222000,598.349867,24.218000,15.951158,24.154000,26.693496,
24.418000,596.110533,24.414000,15.946219,24.349000,26.693665,
24.611000,596.558400,24.608000,15.944573,24.544000,26.693722,
24.809000,591.184000,24.804000,15.944024,24.739000,26.693741,
25.001000,588.944667,24.998000,15.943841,24.934000,26.693747,
25.201000,586.257467,25.194000,15.943780,25.129000,26.693749,
25.392000,583.570267,25.389000,15.810427,25.324000,26.693750,
25.590000,582.226667,25.584000,15.899309,25.520000,26.693750,
25.783000,582.226667,25.779000,15.795603,25.715000,26.693750,
25.976000,580.435200,25.974000,15.761034,25.909000,26.693750,
26.171000,577.748000,26.169000,15.749511,26.105000,26.693750,
26.372000,577.300133,26.365000,15.745670,26.300000,26.693750,
26.561000,576.404400,26.559000,15.744390,26.495000,26.693750,
26.759000,574.612933,26.755000,15.743963,26.690000,26.693750,
26.951000,573.717200,26.949000,15.743821,26.885000,26.693750,
27.149000,574.165067,27.145000,15.610440,27.080000,26.810417,
27.342000,574.165067,27.339000,15.565980,27.275000,26.732639,
27.537000,572.373600,27.535000,15.551160,27.470000,26.823380,
27.732000,571.477867,27.729000,15.679553,27.665000,26.853627,
27.933000,571.477867,27.925000,15.589018,27.860000,26.863709,
28.126000,571.477867,28.120000,15.558839,28.055000,26.867070,
28.320000,570.134267,28.315000,15.548780,28.250000,26.868190,
28.513000,568.342800,28.510000,15.545427,28.445000,26.868563,
28.708000,567.447067,28.706000,15.544309,28.640000,26.868688,
28.902000,566.551333,28.900000,15.543936,28.836000,26.868729,
29.100000,566.103467,29.096000,15.543812,29.031000,26.868743,
29.293000,564.312000,29.290000,15.410437,29.226000,26.868748,
29.490000,562.968400,29.486000,15.499312,29.421000,27.002083,
29.683000,560.281200,29.680000,15.395604,29.616000,26.913194,
29.880000,559.833333,29.876000,15.361035,29.811000,27.016898,
30.073000,558.041867,30.071000,15.349512,30.006000,27.051466,
30.267000,556.698267,30.266000,15.345671,30.201000,27.062989,
30.463000,555.354667,30.461000,15.344390,30.396000,27.066830,
30.660000,551.323867,30.656000,15.343963,30.591000,27.068110,
30.855000,553.115333,30.851000,15.343821,30.786000,27.201870,
31.047000,552.219600,31.046000,15.343774,30.981000,27.246457,
31.246000,551.323867,31.241000,15.343758,31.177000,27.261319,
31.441000,549.980267,31.437000,15.343753,31.372000,27.399606,
31.635000,549.084533,31.631000,15.343751,31.567000,27.312369,
31.832000,547.293067,31.827000,15.343750,31.762000,27.416623,
32.026000,545.949467,32.022000,15.227083,31.956000,27.451374,
32.219000,545.053733,32.217000,15.188194,32.152000,27.462958,
32.413000,544.158000,32.411000,15.271065,32.346000,27.445986,
32.611000,542.814400,32.607000,15.319522,32.542000,27.461162,
32.806000,542.814400,32.802000,15.198174,32.737000,27.578721,
33.000000,541.918667,32.997000,15.178558,32.932000,27.638740,
33.195000,540.127200,33.192000,15.151186,33.127000,27.637913,
33.394000,538.783600,33.387000,15.142062,33.322000,27.637638,
33.583000,537.440000,33.582000,15.159854,33.517000,27.658379,
33.781000,536.544267,33.777000,15.144951,33.712000,27.644460,
33.975000,536.096400,33.972000,15.139984,33.907000,27.756487,
34.173000,535.200667,34.168000,15.138328,34.102000,27.793829,
34.365000,533.409200,34.362000,15.137776,34.298000,27.806276,
34.562000,532.513467,34.558000,15.158425,34.493000,27.831259,
34.756000,530.274133,34.753000,15.165308,34.689000,27.839586,
34.950000,528.930533,34.948000,15.167603,34.884000,27.842362,
35.145000,526.691200,35.143000,15.168368,35.080000,27.843287,
35.343000,526.243333,35.339000,15.168623,35.274000,27.843596,
35.536000,525.795467,35.534000,15.035374,35.469000,27.843699,
35.733000,525.347600,35.729000,15.124291,35.664000,27.843733,
35.926000,524.899733,35.924000,15.020597,35.860000,27.843744,
36.120000,524.451867,36.119000,14.986032,36.054000,27.977081,
36.315000,523.556133,36.314000,15.107844,36.249000,28.021527,
36.511000,521.764667,36.509000,15.015115,36.444000,28.036342,
36.706000,520.421067,36.704000,14.984205,36.639000,28.041281,
36.901000,518.629600,36.899000,14.973902,36.835000,28.042927,
37.097000,514.150933,37.094000,14.970467,37.030000,28.043476,
37.291000,509.672267,37.289000,14.969322,37.225000,28.043659,
37.486000,512.359467,37.484000,14.968941,37.420000,28.043720,
37.681000,510.120133,37.679000,14.968814,37.615000,28.043740,
37.877000,510.120133,37.874000,14.968771,37.810000,28.177080,
38.073000,508.776533,38.070000,14.968757,38.005000,28.221527,
38.268000,507.880800,38.265000,14.968752,38.200000,28.103009,
38.465000,508.328667,38.460000,14.968751,38.395000,28.196836,
38.659000,509.224400,38.655000,14.947917,38.590000,28.207279,
38.856000,507.880800,38.850000,14.807639,38.785000,28.210760,
39.046000,506.537200,39.045000,14.915046,38.981000,28.232753,
39.249000,502.058533,39.240000,14.930015,39.175000,28.219251,
39.438000,502.954267,39.435000,14.801672,39.371000,28.214750,
39.632000,503.850000,39.630000,14.779724,39.565000,28.234083,
39.828000,504.297867,39.825000,14.751575,39.760000,28.219694,
40.026000,503.850000,40.020000,14.742192,39.956000,28.214898,
40.221000,503.402133,40.216000,14.739064,40.150000,28.213299,
40.415000,502.954267,40.411000,14.738021,40.346000,28.212766,
40.607000,501.610667,40.605000,14.737674,40.541000,28.212589,
40.802000,499.819200,40.800000,14.737558,40.736000,28.345863,
40.997000,499.819200,40.995000,14.737519,40.931000,28.390288,
41.192000,498.923467,41.190000,14.737506,41.126000,28.405096,
41.387000,498.475600,41.385000,14.737502,41.321000,28.410032,
41.583000,498.027733,41.581000,14.737501,41.516000,28.411677,
41.778000,497.579867,41.776000,14.737500,41.711000,28.412226,
41.972000,495.340533,41.971000,14.737500,41.906000,28.412409,
42.167000,494.444800,42.166000,14.737500,42.101000,28.412470,
42.363000,493.101200,42.361000,14.737500,42.296000,28.412490,
42.557000,492.205467,42.556000,14.737500,42.491000,28.412497,
42.753000,491.309733,42.751000,14.737500,42.687000,28.412499,
42.947000,490.414000,42.946000,14.737500,42.882000,28.412500,
43.143000,488.622533,43.141000,14.737500,43.077000,28.412500,
43.337000,486.383200,43.336000,14.737500,43.271000,28.412500,
43.532000,487.726800,43.531000,14.737500,43.467000,28.412500,
43.728000,486.831067,43.726000,14.737500,43.662000,28.412500,
43.923000,485.935333,43.921000,14.737500,43.857000,28.412500,
44.118000,485.039600,44.116000,14.737500,44.052000,28.412500,
44.313000,484.143867,44.312000,14.737500,44.246000,28.412500,
44.507000,483.696000,44.506000,14.604167,44.442000,28.412500,
44.703000,483.696000,44.701000,14.559722,44.637000,28.545833,
44.899000,483.248133,44.897000,14.678241,44.832000,28.590278,
45.093000,483.248133,45.092000,14.717747,45.027000,28.605093,
45.288000,482.352400,45.286000,14.730916,45.222000,28.610031,
45.484000,481.456667,45.482000,14.735305,45.417000,28.611677,
45.678000,480.560933,45.677000,14.736768,45.612000,28.612226,
45.873000,479.665200,45.872000,14.603923,45.807000,28.612409,
46.069000,479.217333,46.067000,14.559641,46.002000,28.612470,
46.263000,478.769467,46.262000,14.544880,46.197000,28.612490,
46.458000,479.665200,46.457000,14.539960,46.393000,28.612497,
46.653000,478.769467,46.652000,14.538320,46.587000,28.612499,
46.848000,477.873733,46.847000,14.537773,46.783000,28.612500,
47.043000,476.082267,47.042000,14.537591,46.978000,28.612500,
47.239000,474.738667,47.237000,14.537530,47.173000,28.612500,
47.434000,474.290800,47.432000,14.537510,47.367000,28.612500,
47.629000,471.603600,47.627000,14.537503,47.563000,28.612500,
47.824000,472.947200,47.822000,14.537501,47.758000,28.612500,
48.019000,470.260000,48.017000,14.537500,47.953000,28.612500,
48.215000,468.468533,48.212000,14.537500,48.148000,28.612500,
48.409000,468.468533,48.407000,14.537500,48.343000,28.612500,
48.604000,468.916400,48.602000,14.537500,48.538000,28.612500,
48.799000,468.468533,48.797000,14.537500,48.733000,28.612500,
48.995000,468.020667,48.993000,14.537500,48.928000,28.612500,
49.189000,469.364267,49.188000,14.537500,49.123000,28.612500,
49.384000,468.916400,49.383000,14.537500,49.318000,28.612500,
49.579000,468.020667,49.578000,14.537500,49.513000,28.612500,
49.775000,468.468533,49.773000,14.537500,49.708000,28.612500,
49.969000,468.020667,49.968000,14.537500,49.903000,28.612500,
50.164000,465.781333,50.163000,14.537500,50.098000,28.612500,
50.360000,463.542000,50.358000,14.537500,50.293000,28.612500,
50.555000,463.094133,50.553000,14.537500,50.489000,28.745833,
50.749000,463.094133,50.748000,14.537500,50.684000,28.790278,
50.948000,461.302667,50.944000,14.537500,50.878000,28.671759,
51.141000,459.959067,51.138000,14.537500,51.074000,28.765586,
51.334000,458.167600,51.333000,14.537500,51.268000,28.796862,
51.532000,458.167600,51.529000,14.537500,51.463000,28.807287,
51.725000,458.615467,51.723000,14.404167,51.659000,28.810762,
51.919000,458.167600,51.918000,14.493056,51.853000,28.811921,
52.120000,456.376133,52.114000,14.389352,52.049000,28.812307,
52.311000,455.032533,52.309000,14.354784,52.245000,28.812436,
52.506000,455.480400,52.505000,14.343261,52.439000,28.812479,
52.701000,455.480400,52.699000,14.472754,52.635000,28.812493,
52.896000,455.480400,52.895000,14.382585,52.830000,28.929164,
53.091000,454.584667,53.090000,14.352528,53.025000,28.968055,
53.286000,454.136800,53.285000,14.475843,53.220000,28.981018,
53.482000,453.241067,53.480000,14.383614,53.415000,28.985339,
53.679000,453.241067,53.675000,14.352871,53.610000,28.986780,
53.871000,452.793200,53.870000,14.342624,53.806000,28.987260,
54.066000,451.449600,54.065000,14.339208,54.001000,28.987420,
54.264000,451.897467,54.261000,14.338069,54.195000,28.987473,
54.466000,451.001733,54.455000,14.337690,54.390000,29.120824,
54.653000,449.658133,54.650000,14.337563,54.586000,29.165275,
54.851000,449.658133,54.846000,14.337521,54.780000,29.180092,
55.042000,448.762400,55.040000,14.337507,54.975000,29.185031,
55.237000,448.762400,55.235000,14.337502,55.170000,29.186677,
55.434000,448.314533,55.430000,14.337501,55.365000,29.187226,
55.627000,447.866667,55.625000,14.337500,55.561000,29.187409,
55.823000,446.523067,55.821000,14.337500,55.756000,29.187470,
56.037000,447.866667,56.015000,14.337500,55.951000,29.187490,
56.213000,446.523067,56.211000,14.337500,56.146000,29.187497,
56.407000,446.075200,56.406000,14.337500,56.341000,29.187499,
56.603000,445.627333,56.601000,14.337500,56.536000,29.320833,
56.797000,445.179467,56.796000,14.337500,56.731000,29.365278,
56.997000,444.731600,56.991000,14.337500,56.926000,29.380093,
57.189000,444.283733,57.186000,14.337500,57.121000,29.385031,
57.382000,438.909333,57.381000,14.337500,57.316000,29.386677,
57.581000,442.492267,57.576000,14.337500,57.511000,29.387226,
57.784000,441.596533,57.771000,14.337500,57.707000,29.387409,
57.968000,440.700800,57.966000,14.337500,57.901000,29.520803,
58.166000,440.252933,58.161000,14.337500,58.096000,29.565268,
58.358000,438.461467,58.356000,14.337500,58.292000,29.446756,
58.555000,438.013600,58.551000,14.337500,58.487000,29.540585,
58.752000,438.013600,58.747000,14.337500,58.681000,29.571862,
58.943000,438.461467,58.941000,14.337500,58.877000,29.582287,
59.140000,438.909333,59.137000,14.337500,59.071000,29.585762,
59.336000,439.805067,59.332000,14.220833,59.266000,29.586921,
59.528000,439.357200,59.526000,14.298611,59.462000,29.587307,
59.725000,439.357200,59.721000,14.324537,59.657000,29.587436,
59.919000,439.357200,59.917000,14.333179,59.852000,29.587479,
60.113000,439.805067,60.112000,14.336060,60.047000,29.587493,
60.312000,439.805067,60.307000,14.220353,60.242000,29.587498,
60.513000,437.117867,60.502000,14.298451,60.437000,29.587499,
60.698000,433.982800,60.697000,14.207817,60.632000,29.587500,
60.897000,430.399867,60.892000,14.177606,60.827000,29.720833,
61.091000,427.712667,61.087000,14.167535,61.022000,29.631944,
61.283000,427.264800,61.282000,14.164178,61.217000,29.735648,
61.478000,428.160533,61.477000,14.163059,61.412000,29.770216,
61.676000,427.712667,61.672000,14.162686,61.608000,29.781739,
