heat_flux_time_[ms],heat_flux_[W/m^2],thermocouple1_time_[ms],thermocouple1_[degC],thermocouple2_time_[ms],thermocouple2_[deg_C]
0.196000,553.563200,0.194000,22.656250,0.129000,23.631250,
0.397000,623.878267,0.389000,22.406250,0.325000,23.764583,
0.586000,678.070133,0.583000,22.189583,0.519000,23.809028,
0.777000,719.273867,0.775000,21.850694,0.711000,23.823843,
0.969000,751.072400,0.967000,21.471065,0.904000,23.828781,
1.164000,775.705067,1.160000,21.227855,1.096000,23.830427,
1.354000,796.306933,1.352000,21.013452,1.289000,23.830976,
1.548000,812.430133,1.544000,20.829484,1.481000,23.718659,
1.738000,825.866133,1.736000,20.634828,1.673000,23.681220,
1.930000,836.167067,1.929000,20.299109,1.865000,23.647907,
2.126000,843.332933,2.122000,20.074703,2.058000,23.657636,
2.316000,849.603067,2.313000,19.845734,2.250000,23.773379,
2.510000,854.529600,2.506000,19.636078,2.442000,23.678626,
2.700000,857.664667,2.698000,19.432859,2.634000,23.647042,
2.892000,860.351867,2.890000,19.248453,2.827000,23.769847,
3.084000,862.143333,3.083000,19.186984,3.019000,23.810782,
3.277000,863.486933,3.275000,19.033161,3.211000,23.691094,
3.471000,863.486933,3.467000,18.848554,3.403000,23.784531,
3.662000,864.382667,3.659000,18.787018,3.596000,23.815677,
3.856000,864.382667,3.852000,18.633173,3.788000,23.826059,
4.045000,863.039067,4.044000,18.581891,3.980000,23.962853,
4.237000,860.799733,4.236000,18.431464,4.173000,23.875118,
4.432000,859.008267,4.429000,18.381321,4.365000,23.845873,
4.624000,858.560400,4.621000,18.231274,4.557000,23.836124,
4.816000,857.216800,4.813000,18.181258,4.749000,23.832875,
5.008000,854.529600,5.005000,18.047919,4.942000,23.831792,
5.199000,853.186000,5.198000,18.003473,5.134000,23.831431,
5.394000,852.290267,5.390000,17.855324,5.326000,23.831310,
5.584000,850.498800,5.582000,17.672608,5.519000,23.831270,
5.776000,848.707333,5.775000,17.632536,5.711000,23.852090,
5.968000,846.915867,5.967000,17.619179,5.903000,23.859030,
6.161000,846.468000,6.159000,17.481393,6.096000,23.861343,
6.359000,845.124400,6.352000,17.435464,6.288000,23.995448,
6.547000,843.332933,6.544000,17.420155,6.480000,24.040149,
6.741000,840.197867,6.736000,17.281718,6.672000,24.055050,
6.929000,837.958533,6.928000,17.235573,6.865000,24.060017,
7.122000,834.823467,7.121000,17.220191,7.057000,24.061672,
7.315000,833.479867,7.313000,17.098397,7.249000,24.062224,
7.513000,830.344800,7.505000,17.057799,7.441000,24.062408,
7.702000,829.896933,7.697000,17.044266,7.634000,24.062469,
7.891000,828.553333,7.890000,16.906422,7.826000,24.062490,
8.085000,821.835333,8.082000,16.860474,8.018000,24.195830,
8.278000,822.283200,8.275000,16.845158,8.211000,24.106943,
8.468000,818.252400,8.466000,16.840053,8.403000,24.210648,
8.660000,814.669467,8.659000,16.705018,8.595000,24.245216,
8.855000,811.086533,8.852000,16.660006,8.788000,24.256739,
9.046000,812.878000,9.044000,16.645002,8.980000,24.260580,
9.238000,810.638667,9.237000,16.640001,9.173000,24.261860,
9.430000,810.190800,9.429000,16.638334,9.365000,24.262287,
9.623000,807.951467,9.621000,16.504445,9.557000,24.262429,
9.814000,805.712133,9.813000,16.459815,9.750000,24.262476,
10.010000,803.472800,10.006000,16.444938,9.942000,24.262492,
10.202000,802.577067,10.198000,16.439979,10.134000,24.262497,
10.391000,801.681333,10.390000,16.304993,10.327000,24.262499,
10.584000,798.098400,10.582000,16.259998,10.519000,24.262500,
10.777000,795.411200,10.775000,16.244999,10.711000,24.262500,
10.970000,791.380400,10.967000,16.240000,10.903000,24.379167,
11.163000,787.797467,11.159000,16.238333,11.096000,24.418056,
11.353000,784.214533,11.352000,16.121111,11.288000,24.431019,
11.545000,784.214533,11.544000,16.082037,11.480000,24.435340,
11.738000,781.079467,11.736000,16.069012,11.672000,24.436780,
11.930000,780.183733,11.928000,16.064671,11.865000,24.437260,
12.121000,777.496533,12.121000,16.063224,12.057000,24.437420,
12.314000,773.465733,12.313000,16.062741,12.249000,24.437473,
12.509000,772.570000,12.505000,15.929247,12.441000,24.437491,
12.699000,770.330667,12.697000,15.884749,12.634000,24.437497,
12.893000,770.330667,12.890000,15.869916,12.826000,24.437499,
13.083000,768.539200,13.082000,15.864972,13.018000,24.437500,
13.278000,765.852000,13.274000,15.863324,13.211000,24.437500,
13.469000,763.612667,13.466000,15.862775,13.403000,24.437500,
13.660000,761.821200,13.659000,15.729258,13.595000,24.437500,
13.852000,759.134000,13.851000,15.684753,13.787000,24.437500,
14.045000,759.134000,14.043000,15.649084,13.980000,24.416667,
14.240000,755.998933,14.236000,15.637195,14.172000,24.409722,
14.430000,752.863867,14.428000,15.633232,14.364000,24.407407,
14.623000,753.311733,14.620000,15.631911,14.556000,24.539969,
14.814000,751.968133,14.812000,15.631470,14.749000,24.584156,
15.009000,748.833067,15.005000,15.631323,14.941000,24.598885,
15.201000,748.385200,15.197000,15.631274,15.133000,24.603795,
15.390000,747.489467,15.389000,15.631258,15.326000,24.605432,
15.584000,747.041600,15.582000,15.497919,15.518000,24.605977,
15.776000,743.906533,15.774000,15.453473,15.710000,24.606159,
15.969000,743.458667,15.966000,15.438658,15.903000,24.606220,
16.162000,742.115067,16.159000,15.433719,16.095000,24.606240,
16.353000,743.010800,16.351000,15.432073,16.287000,24.606247,
16.545000,742.115067,16.543000,15.431524,16.479000,24.606249,
16.737000,740.771467,16.735000,15.431341,16.672000,24.606250,
16.929000,740.323600,16.928000,15.297947,16.864000,24.606250,
17.123000,736.740667,17.120000,15.253482,17.056000,24.606250,
17.313000,734.949200,17.312000,15.238661,17.249000,24.606250,
17.506000,734.053467,17.505000,15.254554,17.441000,24.627083,
17.699000,730.918400,17.697000,15.239018,17.633000,24.613194,
17.891000,727.335467,17.889000,15.254673,17.826000,24.629398,
18.085000,726.887600,18.082000,15.239058,18.018000,24.747299,
18.287000,726.887600,18.274000,15.100519,18.210000,24.653266,
18.470000,725.096133,18.466000,15.054340,18.402000,24.755255,
18.664000,723.752533,18.658000,15.038947,18.595000,24.789252,
18.852000,723.304667,18.850000,15.033816,18.787000,24.800584,
19.044000,722.856800,19.042000,15.032105,18.979000,24.804361,
19.236000,721.513200,19.235000,15.031535,19.171000,24.805620,
19.430000,720.169600,19.427000,15.031345,19.363000,24.806040,
19.621000,718.378133,19.619000,15.031282,19.555000,24.806180,
19.813000,715.690933,19.811000,15.031261,19.748000,24.806227,
20.009000,716.586667,20.004000,15.031254,19.940000,24.806242,
20.198000,715.690933,20.196000,15.031251,20.132000,24.806247,
20.392000,715.690933,20.388000,15.031250,20.324000,24.806249,
20.582000,714.795200,20.580000,14.914583,20.516000,24.806250,
20.774000,712.555867,20.772000,14.875694,20.709000,24.806250,
20.966000,711.212267,20.964000,14.862731,20.901000,24.806250,
21.160000,707.181467,21.156000,14.858410,21.094000,24.806250,
21.353000,704.942133,21.349000,14.856970,21.285000,24.806250,
21.543000,705.837867,21.541000,14.856490,21.477000,24.806250,
21.739000,704.942133,21.733000,14.856330,21.670000,24.806250,
21.928000,702.702800,21.925000,14.856277,21.862000,24.806250,
22.119000,699.567733,22.118000,14.856259,22.054000,24.806250,
22.312000,698.672000,22.310000,14.856253,22.247000,24.806250,
22.506000,696.880533,22.502000,14.722918,22.438000,24.939583,
22.699000,696.432667,22.695000,14.678473,22.631000,24.984028,
22.889000,694.193333,22.887000,14.663658,22.823000,24.998843,
23.081000,693.745467,23.079000,14.658719,23.015000,24.870448,
23.273000,694.193333,23.271000,14.657073,23.208000,24.960983,
23.467000,690.610400,23.464000,14.656524,23.400000,24.857828,
23.657000,687.027467,23.656000,14.656341,23.593000,24.956776,
23.852000,684.788133,23.849000,14.656280,23.785000,24.989759,
24.046000,682.100933,24.042000,14.656260,23.979000,25.000753,
24.238000,682.996667,24.236000,14.656253,24.172000,25.004418,
24.431000,682.548800,24.429000,14.656251,24.365000,25.005639,
24.625000,680.757333,24.624000,14.656250,24.559000,25.006046,
24.821000,678.965867,24.819000,14.656250,24.754000,25.006182,
25.015000,676.726533,25.014000,14.656250,24.949000,25.006227,
25.211000,675.382933,25.209000,14.656250,25.144000,25.006242,
25.406000,678.070133,25.404000,14.522917,25.339000,25.006247,
25.601000,678.518000,25.599000,14.478472,25.534000,25.006249,
25.806000,680.309467,25.794000,14.463657,25.729000,25.006250,
25.990000,674.935067,25.989000,14.458719,25.924000,25.006250,
26.186000,677.622267,26.184000,14.457073,26.119000,25.006250,
26.381000,677.174400,26.380000,14.456524,26.315000,25.006250,
26.577000,675.382933,26.575000,14.456341,26.510000,25.006250,
26.771000,674.935067,26.770000,14.456280,26.705000,25.006250,
26.968000,673.591467,26.965000,14.456260,26.900000,25.006250,
27.161000,672.247867,27.160000,14.456253,27.096000,25.006250,
27.357000,669.112800,27.355000,14.456251,27.290000,25.006250,
27.552000,667.769200,27.550000,14.456250,27.485000,25.006250,
27.749000,667.769200,27.746000,14.456250,27.680000,25.006250,
27.943000,665.977733,27.940000,14.477083,27.875000,25.027083,
28.139000,664.634133,28.135000,14.463194,28.070000,25.013194,
28.331000,664.634133,28.330000,14.458565,28.265000,25.141898,
28.529000,662.394800,28.525000,14.457022,28.460000,25.051466,
28.740000,659.707600,28.720000,14.456507,28.655000,25.021322,
28.919000,655.676800,28.915000,14.456336,28.850000,25.011274,
29.111000,653.885333,29.110000,14.456279,29.045000,25.141258,
29.309000,654.781067,29.305000,14.322926,29.240000,25.051253,
29.501000,657.916133,29.500000,14.411809,29.435000,25.154584,
29.696000,655.676800,29.695000,14.308103,29.630000,25.189028,
29.893000,655.228933,29.890000,14.273534,29.825000,25.200509,
30.086000,655.676800,30.084000,14.262011,30.020000,25.204336,
30.281000,653.885333,30.279000,14.258170,30.215000,25.205612,
30.478000,653.437467,30.474000,14.390223,30.410000,25.206037,
30.671000,653.437467,30.669000,14.300908,30.605000,25.206179,
30.866000,652.541733,30.865000,14.271136,30.800000,25.206226,
31.063000,650.302400,31.060000,14.261212,30.995000,25.206242,
31.256000,650.302400,31.255000,14.257904,31.190000,25.206247,
31.454000,651.198133,31.450000,14.256801,31.385000,25.206249,
31.646000,652.541733,31.644000,14.277267,31.580000,25.227083,
31.842000,649.406667,31.839000,14.284089,31.775000,25.234028,
32.037000,646.719467,32.034000,14.286363,31.970000,25.236343,
32.232000,644.480133,32.229000,14.266288,32.165000,25.216281,
32.429000,644.480133,32.425000,14.280429,32.360000,25.230427,
32.624000,644.480133,32.620000,14.285143,32.555000,25.235142,
32.816000,645.375867,32.814000,14.286714,32.750000,25.236714,
33.011000,643.584400,33.009000,14.287238,32.945000,25.237238,
33.209000,642.688667,33.205000,14.266579,33.139000,25.216579,
33.403000,643.136533,33.399000,14.280526,33.335000,25.230526,
33.598000,641.345067,33.595000,14.264342,33.530000,25.214342,
33.791000,640.897200,33.789000,14.258947,33.725000,25.208947,
33.987000,638.210000,33.984000,14.257149,33.920000,25.340482,
34.181000,638.210000,34.179000,14.256550,34.115000,25.250994,
34.376000,638.657867,34.374000,14.256350,34.310000,25.354498,
34.571000,638.210000,34.570000,14.256283,34.505000,25.255666,
34.766000,636.418533,34.765000,14.256261,34.700000,25.356055,
34.961000,633.731333,34.960000,14.256254,34.895000,25.389518,
35.158000,631.939867,35.155000,14.256251,35.090000,25.400673,
35.351000,627.461200,35.350000,14.256250,35.285000,25.404391,
35.547000,624.326133,35.545000,14.256250,35.480000,25.405630,
35.741000,623.430400,35.740000,14.277083,35.675000,25.426877,
35.940000,623.878267,35.935000,14.263194,35.870000,25.413126,
36.133000,622.982533,36.130000,14.258565,36.066000,25.408542,
36.327000,621.191067,36.325000,14.257022,36.261000,25.407014,
36.522000,620.295333,36.520000,14.123174,36.456000,25.406505,
36.717000,621.638933,36.715000,14.211891,36.651000,25.406335,
36.912000,621.638933,36.910000,14.241464,36.846000,25.406278,
37.110000,621.638933,37.106000,14.251321,37.041000,25.406259,
37.307000,621.191067,37.301000,14.254607,37.236000,25.406253,
37.500000,621.191067,37.496000,14.255702,37.431000,25.406251,
37.693000,618.951733,37.691000,14.256067,37.626000,25.406250,
37.888000,618.951733,37.886000,14.256189,37.821000,25.406250,
38.083000,618.056000,38.081000,14.122896,38.016000,25.406250,
38.280000,621.191067,38.276000,14.078465,38.211000,25.406250,
38.473000,622.534667,38.471000,14.196988,38.406000,25.406250,
38.668000,623.430400,38.666000,14.236496,38.602000,25.406250,
38.863000,623.878267,38.861000,14.249665,38.797000,25.406250,
39.058000,621.191067,39.056000,14.120722,38.992000,25.406250,
39.252000,622.086800,39.251000,14.211074,39.187000,25.406250,
39.448000,621.638933,39.446000,14.241191,39.382000,25.406250,
39.644000,622.534667,39.642000,14.117897,39.577000,25.406250,
39.839000,622.086800,39.837000,14.076799,39.772000,25.406250,
40.033000,622.086800,40.032000,14.196433,39.967000,25.406250,
40.228000,620.743200,40.227000,14.102978,40.162000,25.406250,
40.425000,620.295333,40.422000,14.071826,40.357000,25.406250,
40.619000,618.951733,40.617000,14.061442,40.552000,25.406250,
40.816000,616.712400,40.812000,14.057981,40.747000,25.406250,
41.009000,614.025200,41.007000,14.056827,40.943000,25.406250,
41.210000,612.681600,41.202000,14.056442,41.138000,25.406250,
41.399000,610.890133,41.397000,14.056314,41.333000,25.406250,
41.597000,611.785867,41.593000,14.056271,41.528000,25.406250,
41.791000,611.338000,41.787000,14.056257,41.723000,25.406250,
41.988000,611.785867,41.983000,14.056252,41.917000,25.406250,
42.179000,612.233733,42.177000,14.056251,42.113000,25.406250,
42.375000,611.338000,42.373000,14.056250,42.308000,25.406250,
42.570000,611.785867,42.568000,14.056250,42.503000,25.406250,
42.772000,608.202933,42.763000,14.056250,42.698000,25.406250,
42.960000,610.442267,42.958000,14.056250,42.893000,25.406250,
43.157000,611.785867,43.153000,14.056250,43.089000,25.522917,
43.352000,611.338000,43.348000,14.056250,43.283000,25.561806,
43.547000,610.890133,43.543000,14.056250,43.478000,25.574769,
43.740000,609.098667,43.738000,14.056250,43.673000,25.579090,
43.936000,609.994400,43.934000,14.056250,43.870000,25.580530,
44.131000,608.202933,44.129000,14.056250,44.065000,25.581010,
44.333000,606.411467,44.325000,14.056250,44.260000,25.581170,
44.523000,605.515733,44.520000,14.056250,44.455000,25.581223,
44.718000,601.037067,44.715000,14.056250,44.650000,25.581241,
44.912000,602.380667,44.910000,14.056250,44.845000,25.581247,
45.107000,604.172133,45.105000,13.939583,45.040000,25.581249,
45.301000,605.067867,45.300000,13.900694,45.235000,25.581250,
45.499000,605.515733,45.495000,13.887731,45.430000,25.581250,
45.692000,601.484933,45.690000,14.000077,45.625000,25.581250,
45.890000,601.037067,45.885000,14.037526,45.821000,25.581250,
46.082000,598.349867,46.080000,14.050009,46.016000,25.581250,
46.278000,594.319067,46.276000,14.054170,46.211000,25.581250,
46.480000,592.527600,46.470000,14.055557,46.406000,25.581250,
46.667000,592.527600,46.666000,14.056019,46.601000,25.581250,
46.862000,592.975467,46.861000,14.056173,46.796000,25.581250,
47.059000,594.766933,47.056000,14.056224,46.991000,25.581250,
47.252000,595.214800,47.251000,14.056241,47.186000,25.581250,
47.447000,594.319067,47.446000,14.056247,47.381000,25.581250,
47.643000,595.662667,47.641000,14.056249,47.576000,25.581250,
47.840000,599.245600,47.836000,13.939583,47.771000,25.581250,
48.032000,597.902000,48.031000,13.900694,47.966000,25.581250,
48.231000,593.871200,48.227000,14.004398,48.162000,25.581250,
48.422000,592.527600,48.421000,14.038966,48.356000,25.581250,
48.618000,594.766933,48.616000,14.050489,48.552000,25.581250,
48.813000,592.079733,48.811000,14.054330,48.747000,25.581250,
49.011000,591.184000,49.006000,14.055610,48.942000,25.581250,
49.204000,588.048933,49.201000,14.056037,49.137000,25.581250,
49.403000,586.705333,49.398000,14.056179,49.332000,25.581250,
49.594000,587.153200,49.592000,14.056226,49.527000,25.581250,
49.791000,586.257467,49.787000,14.056242,49.722000,25.581250,
49.984000,586.257467,49.982000,14.056247,49.917000,25.581250,
50.181000,585.809600,50.177000,14.056249,50.112000,25.581250,
50.373000,585.809600,50.372000,14.056250,50.307000,25.581250,
50.569000,585.361733,50.567000,14.056250,50.502000,25.581250,
50.766000,588.048933,50.762000,14.056250,50.698000,25.581250,
50.961000,587.153200,50.957000,14.056250,50.893000,25.581250,
51.154000,584.466000,51.152000,14.056250,51.088000,25.581250,
51.361000,584.466000,51.348000,14.056250,51.283000,25.581250,
51.545000,585.809600,51.542000,14.056250,51.478000,25.581250,
51.743000,587.601067,51.737000,14.056250,51.673000,25.581250,
51.934000,584.466000,51.933000,14.056250,51.868000,25.581250,
52.134000,586.705333,52.128000,14.056250,52.063000,25.581250,
52.327000,586.705333,52.323000,14.056250,52.258000,25.581250,
52.520000,586.705333,52.518000,14.056250,52.453000,25.581250,
52.715000,583.570267,52.713000,14.056250,52.648000,25.581250,
52.913000,584.913867,52.908000,14.056250,52.844000,25.581250,
53.106000,584.466000,53.103000,14.056250,53.039000,25.581250,
53.306000,585.809600,53.298000,14.056250,53.234000,25.581250,
53.498000,586.257467,53.494000,13.939583,53.428000,25.581250,
53.693000,586.257467,53.689000,14.017361,53.624000,25.581250,
53.886000,586.257467,53.883000,13.926620,53.819000,25.581250,
54.090000,584.913867,54.078000,14.013040,54.014000,25.581250,
54.275000,585.361733,54.273000,14.041847,54.209000,25.581250,
54.472000,585.809600,54.469000,14.051449,54.404000,25.581250,
54.666000,585.361733,54.664000,14.054650,54.599000,25.581250,
54.863000,586.257467,54.859000,14.055717,54.794000,25.581250,
55.060000,585.361733,55.054000,14.056072,54.989000,25.581250,
55.253000,585.361733,55.249000,14.056191,55.184000,25.581250,
55.446000,581.778800,55.444000,13.939564,55.379000,25.581250,
55.642000,581.778800,55.639000,14.017355,55.575000,25.581250,
55.836000,579.987333,55.834000,13.926618,55.769000,25.714583,
56.031000,578.643733,56.029000,13.896373,55.965000,25.759028,
56.227000,581.330933,56.224000,13.886291,56.160000,25.773843,
56.421000,580.883067,56.419000,13.999597,56.355000,25.778781,
56.616000,581.778800,56.614000,13.920699,56.550000,25.780427,
56.827000,583.122400,56.809000,13.894400,56.745000,25.780976,
57.006000,581.778800,57.005000,13.885633,56.940000,25.781159,
57.208000,581.778800,57.200000,13.882711,57.135000,25.781220,
57.397000,581.778800,57.395000,13.977570,57.330000,25.760407,
57.595000,580.435200,57.590000,13.913357,57.525000,25.774302,
57.787000,580.435200,57.785000,13.891952,57.720000,25.778934,
57.985000,578.643733,57.981000,13.884817,57.915000,25.780478,
58.178000,578.195867,58.175000,13.882439,58.111000,25.780993,
58.375000,579.539467,58.371000,13.881646,58.306000,25.781164,
58.568000,576.852267,58.565000,13.881382,58.500000,25.781221,
58.762000,575.060800,58.760000,13.881294,58.696000,25.781240,
58.960000,575.956533,58.955000,13.997931,58.891000,25.781247,
59.154000,577.748000,59.151000,13.920144,59.086000,25.781249,
59.347000,575.508667,59.345000,13.894215,59.281000,25.781250,
59.543000,571.477867,59.541000,13.885572,59.476000,25.781250,
59.741000,570.582133,59.736000,13.999357,59.671000,25.781250,
59.936000,569.238533,59.931000,14.037286,59.866000,25.781250,
60.128000,569.238533,60.126000,13.933262,60.061000,25.781250,
60.323000,570.134267,60.321000,13.898587,60.256000,25.781250,
60.520000,569.686400,60.516000,13.887029,60.451000,25.781250,
60.712000,567.447067,60.711000,13.883176,60.647000,25.781250,
60.908000,567.894933,60.906000,13.881892,60.841000,25.781250,
61.103000,568.342800,61.101000,13.881464,61.037000,25.781250,
61.300000,566.999200,61.297000,13.881321,61.232000,25.781250,
61.494000,565.207733,61.492000,13.881274,61.428000,25.781250,
