heat_flux_time_[ms],heat_flux_[W/m^2],thermocouple1_time_[ms],thermocouple1_[degC],thermocouple2_time_[ms],thermocouple2_[deg_C]
0.188000,461.437027,0.186000,23.287500,0.122000,23.662500,
0.385000,546.979560,0.381000,23.154167,0.317000,23.662500,
0.578000,611.472360,0.574000,22.976389,0.510000,23.662500,
0.767000,658.946227,0.766000,22.783796,0.702000,23.662500,
0.960000,695.223427,0.958000,22.586265,0.894000,23.662500,
1.152000,723.439027,1.150000,22.403755,1.087000,23.662500,
1.344000,745.384493,1.343000,22.342918,1.279000,23.662500,
1.538000,762.403427,1.535000,22.055973,1.471000,23.662500,
1.730000,776.735160,1.727000,21.960324,1.663000,23.662500,
1.921000,787.483960,1.919000,21.795108,1.856000,23.662500,
2.120000,795.993427,2.115000,21.606703,2.048000,23.529167,
2.309000,802.711427,2.304000,21.410568,2.240000,23.618056,
2.500000,808.533693,2.496000,21.228523,2.433000,23.647685,
2.692000,811.668760,2.689000,21.034508,2.625000,23.657562,
2.885000,815.251693,2.881000,20.969836,2.817000,23.660854,
3.078000,817.938893,3.073000,20.814945,3.009000,23.661951,
3.267000,819.730360,3.265000,20.629982,3.202000,23.662317,
3.459000,820.626093,3.458000,20.568327,3.394000,23.662439,
3.658000,821.969693,3.651000,20.414442,3.587000,23.662480,
3.847000,821.969693,3.843000,20.246481,3.779000,23.662493,
4.040000,822.417560,4.035000,20.190494,3.972000,23.662498,
4.229000,821.969693,4.228000,20.038498,4.164000,23.662499,
4.422000,820.626093,4.420000,19.987833,4.356000,23.662500,
4.614000,820.178227,4.612000,19.837611,4.549000,23.662500,
4.807000,818.834627,4.805000,19.654204,4.741000,23.795833,
4.999000,817.491027,4.997000,19.593068,4.933000,23.840278,
5.190000,817.043160,5.189000,19.460189,5.125000,23.875926,
5.384000,814.803827,5.381000,19.395063,5.318000,23.866975,
5.575000,812.564493,5.574000,19.256688,5.510000,23.863992,
5.771000,810.773027,5.766000,19.210563,5.702000,23.862997,
5.962000,808.085827,5.959000,19.195188,5.895000,23.862666,
6.152000,804.950760,6.150000,19.056729,6.087000,23.862555,
6.345000,802.711427,6.343000,19.010576,6.279000,23.862518,
6.536000,800.472093,6.535000,18.995192,6.472000,23.995839,
6.731000,796.889160,6.727000,18.856731,6.664000,23.906946,
6.923000,794.201960,6.920000,18.677244,6.856000,23.877315,
7.119000,790.619027,7.112000,18.617415,7.048000,24.000772,
7.307000,790.171160,7.304000,18.597472,7.240000,24.041924,
7.498000,787.483960,7.496000,18.590824,7.433000,24.188975,
7.690000,785.244627,7.689000,18.455275,7.625000,24.237992,
7.883000,782.557427,7.881000,18.410092,7.817000,24.254331,
8.076000,780.318093,8.074000,18.395031,8.010000,24.259777,
8.268000,777.183027,8.266000,18.256677,8.202000,24.261592,
8.460000,774.047960,8.458000,18.210559,8.394000,24.262197,
8.654000,771.360760,8.650000,18.195186,8.586000,24.262399,
8.844000,767.329960,8.842000,18.190062,8.779000,24.262466,
9.038000,766.882093,9.035000,18.071687,8.972000,24.262489,
9.233000,763.747027,9.227000,18.032229,9.163000,24.262496,
9.421000,760.611960,9.419000,18.019076,9.356000,24.262499,
9.615000,761.059827,9.612000,17.881359,9.548000,24.262500,
9.805000,760.164093,9.804000,17.835453,9.740000,24.262500,
9.997000,758.372627,9.996000,17.820151,9.932000,24.379167,
10.189000,755.237560,10.188000,17.815050,10.125000,24.301389,
10.382000,753.893960,10.381000,17.813350,10.317000,24.392130,
10.576000,750.311027,10.573000,17.812783,10.509000,24.422377,
10.767000,747.175960,10.765000,17.679261,10.701000,24.432459,
10.961000,744.488760,10.958000,17.634754,10.894000,24.435820,
11.151000,742.249427,11.150000,17.486585,11.086000,24.436940,
11.345000,740.905827,11.342000,17.437195,11.278000,24.437313,
11.537000,740.010093,11.534000,17.420732,11.471000,24.437438,
11.728000,739.114360,11.727000,17.415244,11.663000,24.437479,
11.920000,738.218627,11.919000,17.413415,11.855000,24.437493,
12.113000,738.218627,12.111000,17.412805,12.047000,24.437498,
12.307000,737.770760,12.303000,17.412602,12.240000,24.437499,
12.498000,735.531427,12.496000,17.279201,12.432000,24.437500,
12.689000,733.739960,12.688000,17.234734,12.624000,24.437500,
12.881000,732.396360,12.880000,17.219911,12.817000,24.437500,
13.075000,729.261293,13.072000,17.214970,13.009000,24.437500,
13.268000,726.574093,13.265000,17.213323,13.201000,24.437500,
13.459000,726.126227,13.457000,17.096108,13.393000,24.437500,
13.652000,723.439027,13.649000,17.057036,13.586000,24.570833,
13.843000,720.303960,13.841000,17.044012,13.778000,24.615278,
14.038000,718.512493,14.034000,17.039671,13.970000,24.630093,
14.230000,715.825293,14.226000,17.038224,14.163000,24.635031,
14.421000,713.585960,14.418000,17.037741,14.355000,24.636677,
14.614000,711.346627,14.611000,16.904247,14.547000,24.637226,
14.808000,709.107293,14.803000,16.859749,14.740000,24.637409,
14.998000,709.107293,14.995000,16.844916,14.931000,24.637470,
15.192000,704.628627,15.188000,16.839972,15.124000,24.637490,
15.383000,704.628627,15.380000,16.838324,15.316000,24.637497,
15.575000,701.045693,15.572000,16.837775,15.508000,24.637499,
15.766000,696.567027,15.764000,16.837592,15.701000,24.637500,
15.958000,692.088360,15.957000,16.837531,15.893000,24.637500,
16.151000,690.296893,16.149000,16.837510,16.085000,24.637500,
16.343000,688.505427,16.341000,16.704170,16.278000,24.637500,
16.538000,686.713960,16.534000,16.793057,16.470000,24.637500,
16.728000,683.131027,16.726000,16.689352,16.662000,24.637500,
16.920000,682.235293,16.918000,16.788117,16.854000,24.637500,
17.112000,683.578893,17.110000,16.687706,17.047000,24.637500,
17.306000,682.235293,17.303000,16.654235,17.239000,24.770833,
17.496000,682.235293,17.495000,16.643078,17.431000,24.815278,
17.688000,682.235293,17.687000,16.639359,17.623000,24.830093,
17.883000,680.891693,17.879000,16.638120,17.816000,24.835031,
18.075000,681.339560,18.072000,16.637707,18.008000,24.836677,
18.265000,680.443827,18.264000,16.637569,18.200000,24.837226,
18.463000,679.100227,18.456000,16.637523,18.393000,24.837409,
18.650000,676.860893,18.648000,16.637508,18.585000,24.837470,
18.843000,678.204493,18.841000,16.504169,18.777000,24.837490,
19.035000,676.860893,19.033000,16.593056,18.969000,24.837497,
19.227000,672.382227,19.225000,16.489352,19.162000,24.837499,
19.421000,670.142893,19.418000,16.454784,19.354000,24.837500,
19.614000,671.486493,19.610000,16.443261,19.546000,24.837500,
19.805000,667.903560,19.802000,16.439420,19.739000,24.837500,
19.997000,667.007827,19.994000,16.438140,19.931000,24.837500,
20.188000,665.664227,20.187000,16.437713,20.123000,24.837500,
20.381000,663.872760,20.379000,16.437571,20.315000,24.837500,
20.573000,665.216360,20.571000,16.304190,20.508000,24.837500,
20.769000,663.424893,20.764000,16.259730,20.700000,24.837500,
20.960000,661.633427,20.957000,16.244910,20.892000,24.837500,
21.150000,658.498360,21.149000,16.239970,21.085000,24.837500,
21.343000,658.050493,21.341000,16.238323,21.278000,24.837500,
21.535000,657.154760,21.534000,16.237774,21.470000,24.970833,
21.729000,653.123960,21.726000,16.237591,21.662000,24.881944,
21.920000,654.019693,21.918000,16.237530,21.855000,24.985648,
22.123000,652.676093,22.111000,16.237510,22.047000,25.020216,
22.306000,651.332493,22.303000,16.237503,22.239000,25.031739,
22.498000,650.884627,22.495000,16.237501,22.432000,25.035580,
22.691000,649.988893,22.688000,16.120834,22.624000,25.036860,
22.882000,648.197427,22.880000,16.081945,22.817000,25.037287,
23.077000,647.301693,23.073000,16.185648,23.009000,25.037429,
23.267000,648.197427,23.265000,16.220216,23.201000,25.037476,
23.459000,648.645293,23.457000,16.115072,23.394000,25.037492,
23.651000,647.301693,23.650000,16.080024,23.586000,25.037497,
23.844000,643.718760,23.842000,16.068341,23.778000,25.037499,
24.036000,641.927293,24.034000,16.064447,23.971000,25.037500,
24.228000,640.583693,24.227000,16.063149,24.163000,25.037500,
24.421000,637.000760,24.419000,16.062716,24.356000,25.037500,
24.613000,632.522093,24.611000,16.062572,24.548000,25.037500,
24.808000,632.522093,24.804000,16.062524,24.741000,25.037500,
24.998000,630.730627,24.996000,16.062508,24.933000,25.037500,
25.191000,630.282760,25.189000,16.062503,25.125000,25.037500,
25.382000,630.282760,25.381000,16.062501,25.317000,25.037500,
25.577000,630.730627,25.573000,16.062500,25.510000,25.037500,
25.767000,629.834893,25.766000,15.929167,25.702000,25.037500,
25.959000,628.043427,25.958000,16.018056,25.894000,25.037500,
26.152000,624.012627,26.150000,16.047685,26.087000,25.037500,
26.347000,624.012627,26.342000,15.924228,26.279000,25.037500,
26.538000,623.564760,26.535000,15.883076,26.471000,25.170833,
26.729000,621.325427,26.727000,15.869359,26.663000,25.081944,
26.922000,620.877560,26.919000,15.864786,26.856000,25.185648,
27.114000,619.533960,27.112000,15.863262,27.048000,25.220216,
27.308000,618.638227,27.304000,15.862754,27.240000,25.231739,
27.498000,619.981827,27.496000,15.862585,27.433000,25.235580,
27.690000,620.429693,27.689000,15.862528,27.625000,25.236860,
27.887000,618.638227,27.881000,15.862509,27.817000,25.237287,
28.074000,615.055293,28.073000,15.862503,28.009000,25.237429,
28.267000,615.951027,28.266000,15.862501,28.202000,25.237476,
28.460000,614.607427,28.458000,15.862500,28.394000,25.237492,
28.651000,611.920227,28.650000,15.862500,28.586000,25.237497,
28.844000,609.680893,28.842000,15.862500,28.779000,25.237499,
29.036000,606.097960,29.034000,15.862500,28.971000,25.237500,
29.228000,602.067160,29.227000,15.862500,29.163000,25.237500,
29.421000,597.588493,29.419000,15.862500,29.355000,25.237500,
29.614000,600.275693,29.611000,15.862500,29.548000,25.237500,
29.807000,601.171427,29.803000,15.862500,29.740000,25.237500,
29.997000,598.932093,29.996000,15.862500,29.932000,25.237500,
30.190000,598.484227,30.188000,15.862500,30.124000,25.237500,
30.382000,597.140627,30.380000,15.862500,30.317000,25.370833,
30.577000,594.453427,30.573000,15.862500,30.509000,25.415278,
30.767000,594.453427,30.765000,15.862500,30.701000,25.430093,
30.960000,593.557693,30.957000,15.862500,30.894000,25.435031,
31.151000,591.318360,31.149000,15.862500,31.086000,25.436677,
31.343000,591.318360,31.342000,15.862500,31.278000,25.437226,
31.538000,594.453427,31.534000,15.862500,31.471000,25.437409,
31.730000,591.766227,31.727000,15.862500,31.663000,25.437470,
31.920000,586.391827,31.919000,15.862500,31.855000,25.437490,
32.118000,586.391827,32.111000,15.862500,32.047000,25.437497,
32.305000,586.839693,32.303000,15.729167,32.240000,25.437499,
32.497000,588.183293,32.496000,15.684722,32.432000,25.437500,
32.689000,589.079027,32.688000,15.803241,32.624000,25.437500,
32.881000,586.839693,32.880000,15.842747,32.817000,25.437500,
33.074000,585.943960,33.073000,15.722582,33.009000,25.437500,
33.266000,588.183293,33.265000,15.815861,33.201000,25.437500,
33.459000,585.048227,33.458000,15.713620,33.394000,25.437500,
33.654000,584.152493,33.652000,15.812873,33.587000,25.437500,
33.851000,582.808893,33.847000,15.712624,33.782000,25.437500,
34.042000,584.152493,34.040000,15.679208,33.976000,25.437500,
34.238000,582.808893,34.235000,15.801403,34.171000,25.437500,
34.434000,582.361027,34.430000,15.708801,34.365000,25.437500,
34.626000,581.017427,34.625000,15.677934,34.560000,25.437500,
34.822000,579.673827,34.819000,15.667645,34.755000,25.554167,
35.018000,576.986627,35.015000,15.664215,34.950000,25.476389,
35.211000,575.195160,35.209000,15.796405,35.145000,25.450463,
35.408000,575.643027,35.405000,15.707135,35.340000,25.441821,
35.603000,576.090893,35.599000,15.677378,35.535000,25.555607,
35.799000,575.195160,35.795000,15.667459,35.730000,25.476869,
35.992000,574.747293,35.990000,15.664153,35.925000,25.567290,
36.188000,572.507960,36.184000,15.663051,36.120000,25.597430,
36.384000,572.955827,36.379000,15.662684,36.315000,25.607477,
36.576000,572.955827,36.574000,15.662561,36.510000,25.610826,
36.771000,571.612227,36.769000,15.662520,36.705000,25.611942,
36.966000,573.403693,36.964000,15.662507,36.900000,25.612314,
37.167000,571.164360,37.159000,15.662502,37.095000,25.612438,
37.357000,569.820760,37.354000,15.662501,37.290000,25.612479,
37.551000,568.477160,37.549000,15.662500,37.485000,25.612493,
37.748000,568.477160,37.744000,15.662500,37.679000,25.612498,
37.941000,567.133560,37.939000,15.662500,37.874000,25.612499,
38.138000,566.685693,38.134000,15.662500,38.069000,25.612500,
38.333000,565.789960,38.329000,15.662500,38.264000,25.612500,
38.528000,565.789960,38.525000,15.662500,38.460000,25.612500,
38.722000,562.207027,38.720000,15.662500,38.655000,25.612500,
38.917000,560.863427,38.915000,15.662500,38.850000,25.612500,
39.116000,559.519827,39.110000,15.662500,39.045000,25.612500,
39.308000,560.415560,39.305000,15.662500,39.240000,25.612500,
39.501000,559.519827,39.500000,15.662500,39.435000,25.612500,
39.696000,558.176227,39.695000,15.662500,39.630000,25.612500,
39.891000,558.176227,39.890000,15.662500,39.825000,25.612500,
40.087000,555.936893,40.085000,15.662500,40.020000,25.612500,
40.282000,553.249693,40.280000,15.662500,40.215000,25.612500,
40.476000,552.801827,40.475000,15.662500,40.410000,25.612500,
40.672000,551.458227,40.670000,15.662500,40.605000,25.612500,
40.870000,552.353960,40.866000,15.529167,40.800000,25.745833,
41.069000,552.353960,41.060000,15.618056,40.995000,25.656944,
41.258000,552.801827,41.255000,15.647685,41.190000,25.760648,
41.453000,551.010360,41.450000,15.657562,41.385000,25.661883,
41.648000,550.562493,41.645000,15.660854,41.580000,25.628961,
41.843000,551.010360,41.840000,15.661951,41.775000,25.617987,
42.042000,550.562493,42.035000,15.662317,41.970000,25.747662,
42.231000,550.114627,42.230000,15.662439,42.165000,25.657554,
42.430000,548.323160,42.425000,15.662480,42.360000,25.627518,
42.622000,549.666760,42.619000,15.662493,42.555000,25.617506,
42.819000,548.323160,42.815000,15.662498,42.750000,25.747502,
43.011000,546.979560,43.009000,15.662499,42.945000,25.790834,
43.206000,547.427427,43.204000,15.529166,43.140000,25.805278,
43.402000,548.323160,43.399000,15.484722,43.335000,25.676759,
43.599000,549.218893,43.595000,15.469907,43.530000,25.767253,
43.792000,548.323160,43.789000,15.598302,43.725000,25.664084,
43.989000,550.114627,43.985000,15.641101,43.920000,25.629695,
44.182000,549.218893,44.179000,15.522034,44.115000,25.751565,
44.379000,548.771027,44.375000,15.482345,44.310000,25.792188,
44.571000,549.666760,44.569000,15.469115,44.505000,25.805729,
44.768000,548.771027,44.764000,15.464705,44.700000,25.810243,
44.961000,545.635960,44.959000,15.463235,44.894000,25.811748,
45.157000,545.635960,45.154000,15.462745,45.090000,25.812249,
45.351000,544.292360,45.349000,15.462582,45.284000,25.812416,
45.546000,547.875293,45.544000,15.462527,45.480000,25.812472,
45.742000,546.531693,45.739000,15.462509,45.674000,25.812491,
45.938000,542.948760,45.934000,15.462503,45.869000,25.812497,
46.131000,541.605160,46.129000,15.462501,46.064000,25.812499,
46.325000,542.500893,46.324000,15.462500,46.259000,25.812500,
46.522000,543.396627,46.519000,15.462500,46.454000,25.812500,
46.716000,542.500893,46.714000,15.462500,46.649000,25.812500,
46.910000,541.157293,46.909000,15.462500,46.844000,25.812500,
47.105000,541.157293,47.104000,15.462500,47.039000,25.812500,
47.302000,541.157293,47.299000,15.462500,47.234000,25.812500,
47.495000,542.053027,47.494000,15.462500,47.429000,25.812500,
47.691000,541.157293,47.689000,15.462500,47.624000,25.812500,
47.886000,538.470093,47.884000,15.462500,47.819000,25.812500,
48.081000,538.917960,48.079000,15.462500,48.014000,25.812500,
48.276000,538.022227,48.274000,15.462500,48.209000,25.812500,
48.472000,537.574360,48.469000,15.462500,48.404000,25.812500,
48.669000,534.439293,48.664000,15.462500,48.599000,25.812500,
48.862000,534.439293,48.859000,15.462500,48.795000,25.812500,
49.058000,531.752093,49.054000,15.462500,48.990000,25.812500,
49.251000,530.856360,49.249000,15.462500,49.185000,25.812500,
49.449000,530.856360,49.445000,15.329167,49.380000,25.812500,
49.641000,532.199960,49.639000,15.284722,49.575000,25.812500,
49.839000,530.408493,49.835000,15.403241,49.770000,25.812500,
50.032000,529.512760,50.030000,15.442747,49.965000,25.812500,
50.253000,528.617027,50.225000,15.455916,50.160000,25.812500,
50.424000,529.960627,50.420000,15.326972,50.355000,25.812500,
50.618000,530.408493,50.615000,15.417324,50.550000,25.812500,
50.817000,528.617027,50.810000,15.447441,50.745000,25.812500,
51.010000,527.721293,51.005000,15.324147,50.940000,25.812500,
51.204000,527.721293,51.200000,15.416382,51.135000,25.812500,
51.403000,528.617027,51.395000,15.447127,51.330000,25.812500,
51.595000,528.169160,51.590000,15.324042,51.526000,25.812500,
51.789000,527.273427,51.785000,15.283014,51.720000,25.812500,
52.001000,526.825560,51.980000,15.269338,51.916000,25.812500,
52.180000,526.825560,52.175000,15.264779,52.111000,25.812500,
52.372000,523.690493,52.370000,15.263260,52.306000,25.945833,
52.567000,523.242627,52.565000,15.262753,52.501000,25.990278,
52.764000,526.377693,52.761000,15.262584,52.696000,26.005093,
52.959000,525.481960,52.956000,15.262528,52.891000,25.876698,
53.155000,526.825560,53.151000,15.262509,53.086000,25.833899,
53.350000,523.690493,53.346000,15.262503,53.281000,25.952966,
53.545000,520.555427,53.541000,15.262501,53.476000,25.992655,
53.739000,521.451160,53.736000,15.262500,53.671000,26.005885,
53.933000,519.659693,53.931000,15.262500,53.866000,26.010295,
54.127000,518.763960,54.126000,15.262500,54.061000,26.011765,
54.322000,516.972493,54.321000,15.262500,54.256000,26.012255,
54.519000,518.316093,54.516000,15.262500,54.452000,26.012418,
54.713000,516.076760,54.711000,15.262500,54.646000,26.012473,
54.908000,516.524627,54.906000,15.262500,54.842000,26.012491,
55.102000,513.389560,55.101000,15.262500,55.037000,26.012497,
55.299000,512.493827,55.296000,15.262500,55.231000,26.012499,
55.494000,513.389560,55.491000,15.262500,55.426000,26.012500,
55.688000,514.733160,55.686000,15.262500,55.622000,26.012500,
55.883000,515.181027,55.881000,15.262500,55.817000,26.012500,
56.079000,513.837427,56.078000,15.262500,56.013000,26.012500,
56.275000,513.837427,56.273000,15.262500,56.208000,26.012500,
56.469000,513.837427,56.468000,15.262500,56.403000,26.012500,
56.664000,514.285293,56.663000,15.262500,56.598000,26.012500,
56.863000,511.598093,56.858000,15.262500,56.793000,26.012500,
57.055000,511.150227,57.053000,15.262500,56.988000,26.012500,
57.250000,512.493827,57.248000,15.262500,57.183000,26.012500,
57.445000,512.045960,57.444000,15.262500,57.378000,26.012500,
57.639000,514.733160,57.638000,15.262500,57.573000,26.012500,
57.835000,514.733160,57.833000,15.262500,57.768000,26.012500,
58.032000,513.389560,58.028000,15.262500,57.963000,26.012500,
58.225000,512.045960,58.223000,15.262500,58.159000,26.012500,
58.420000,515.181027,58.418000,15.262500,58.354000,26.012500,
58.616000,517.420360,58.613000,15.262500,58.549000,26.012500,
58.810000,516.524627,58.808000,15.262500,58.744000,26.012500,
59.007000,516.076760,59.004000,15.262500,58.939000,26.012500,
59.202000,515.181027,59.199000,15.262500,59.134000,26.012500,
59.396000,515.181027,59.394000,15.262500,59.329000,26.012500,
59.590000,513.389560,59.589000,15.262500,59.524000,26.012500,
59.789000,511.598093,59.784000,15.262500,59.719000,26.012500,
59.980000,511.598093,59.979000,15.262500,59.915000,26.012500,
60.176000,512.493827,60.174000,15.262500,60.109000,26.012500,
60.374000,511.598093,60.369000,15.262500,60.304000,26.012500,
60.566000,509.806627,60.564000,15.262500,60.499000,26.012500,
60.762000,512.941693,60.759000,15.262500,60.694000,26.012500,
60.958000,510.702360,60.954000,15.262500,60.890000,26.012500,
61.151000,508.910893,61.149000,15.262500,61.084000,26.012500,
61.346000,510.702360,61.344000,15.262500,61.280000,26.012500,
