heat_flux_time_[ms],heat_flux_[W/m^2],thermocouple1_time_[ms],thermocouple1_[degC],thermocouple2_time_[ms],thermocouple2_[deg_C]
0.206000,529.064893,0.193000,23.256250,0.128000,24.231250,
0.389000,601.171427,0.386000,23.122917,0.322000,24.231250,
0.580000,656.259027,0.578000,22.945139,0.515000,24.231250,
0.772000,698.358493,0.770000,22.752546,0.707000,24.097917,
0.965000,730.604893,0.963000,22.555015,0.899000,24.053472,
1.160000,756.133293,1.156000,22.372505,1.092000,24.038657,
1.352000,777.183027,1.348000,22.178335,1.284000,24.167052,
1.553000,793.306227,1.540000,21.980278,1.476000,24.076517,
1.736000,805.846493,1.733000,21.780926,1.669000,24.179672,
1.929000,817.491027,1.925000,21.581142,1.861000,24.214057,
2.127000,826.896227,2.117000,21.381214,2.053000,24.225519,
2.312000,834.062093,2.309000,21.197905,2.245000,24.096006,
2.507000,839.436493,2.503000,21.003468,2.439000,24.052835,
2.697000,844.363027,2.694000,20.805323,2.631000,24.171778,
2.889000,847.945960,2.887000,20.739274,2.823000,24.211426,
3.081000,851.528893,3.079000,20.583925,3.016000,24.224642,
3.273000,854.216093,3.271000,20.398808,3.208000,24.095714,
3.469000,856.007560,3.464000,20.337103,3.400000,24.186071,
3.661000,857.799027,3.657000,20.199868,3.593000,24.216190,
3.850000,858.694760,3.848000,20.020789,3.785000,24.226230,
4.045000,859.142627,4.041000,19.827763,3.977000,24.229577,
4.235000,857.799027,4.233000,19.763421,4.170000,24.230692,
4.429000,859.142627,4.426000,19.608640,4.362000,24.231064,
4.621000,858.694760,4.618000,19.423713,4.554000,24.231188,
4.811000,857.351160,4.810000,19.245404,4.746000,24.231229,
5.006000,858.246893,5.003000,19.185968,4.939000,24.231243,
5.198000,857.351160,5.195000,19.032823,5.131000,24.231248,
5.391000,856.903293,5.387000,18.981774,5.323000,24.231249,
5.582000,855.559693,5.579000,18.831425,5.516000,24.231250,
5.775000,853.320360,5.771000,18.781308,5.708000,24.231250,
5.965000,851.976760,5.964000,18.631269,5.900000,24.347917,
6.157000,850.633160,6.156000,18.581256,6.092000,24.386806,
6.352000,848.841693,6.349000,18.431252,6.284000,24.283102,
6.545000,847.498093,6.541000,18.381251,6.477000,24.248534,
6.737000,844.363027,6.733000,18.231250,6.669000,24.353678,
6.928000,843.915160,6.925000,18.181250,6.862000,24.388726,
7.119000,840.332227,7.117000,18.047917,7.054000,24.400409,
7.311000,840.780093,7.310000,18.003472,7.246000,24.404303,
7.506000,838.092893,7.502000,17.855324,7.439000,24.405601,
7.698000,835.405693,7.695000,17.785108,7.631000,24.385200,
7.889000,833.614227,7.887000,17.628369,7.823000,24.378400,
8.081000,831.374893,8.079000,17.576123,8.016000,24.376133,
8.276000,829.135560,8.272000,17.425374,8.208000,24.375378,
8.466000,826.896227,8.463000,17.375125,8.400000,24.375126,
8.659000,823.761160,8.656000,17.225042,8.592000,24.375042,
8.851000,821.521827,8.848000,17.175014,8.784000,24.375014,
9.042000,819.730360,9.040000,17.158338,8.977000,24.375005,
9.237000,818.834627,9.233000,17.036113,9.169000,24.375002,
9.428000,817.043160,9.425000,16.995371,9.361000,24.508334,
9.622000,814.803827,9.617000,16.981790,9.553000,24.552778,
9.813000,812.564493,9.809000,16.843930,9.746000,24.567593,
10.005000,810.325160,10.001000,16.797977,9.938000,24.572531,
10.195000,809.429427,10.194000,16.782659,10.130000,24.574177,
10.388000,807.637960,10.386000,16.644220,10.323000,24.574726,
10.582000,805.398627,10.579000,16.598073,10.515000,24.574909,
10.772000,802.711427,10.770000,16.603524,10.707000,24.595803,
10.967000,800.024227,10.963000,16.605341,10.899000,24.602768,
11.157000,797.784893,11.155000,16.472614,11.091000,24.605089,
11.348000,795.097693,11.347000,16.428371,11.284000,24.739196,
11.544000,792.858360,11.540000,16.280290,11.476000,24.783899,
11.734000,791.066893,11.732000,16.230930,11.668000,24.798800,
11.929000,787.036093,11.925000,16.214477,11.861000,24.803767,
12.118000,786.588227,12.116000,16.208992,12.053000,24.805422,
12.310000,787.036093,12.309000,16.090497,12.245000,24.805974,
12.502000,785.692493,12.501000,16.050999,12.438000,24.806158,
12.698000,786.588227,12.694000,16.037833,12.630000,24.806219,
12.887000,785.692493,12.886000,15.900111,12.822000,24.806240,
13.081000,784.348893,13.078000,15.854204,13.014000,24.806247,
13.272000,781.661693,13.270000,15.838901,13.207000,24.806249,
13.471000,779.870227,13.463000,15.833800,13.399000,24.806250,
13.661000,777.630893,13.655000,15.698767,13.592000,24.939583,
13.852000,775.391560,13.848000,15.653756,13.784000,24.850694,
14.043000,772.256493,14.040000,15.638752,13.976000,24.954398,
14.236000,769.569293,14.232000,15.500417,14.169000,24.988966,
14.426000,767.777827,14.424000,15.433472,14.361000,24.979655,
14.618000,764.642760,14.617000,15.431991,14.553000,24.997385,
14.814000,763.747027,14.810000,15.298164,14.746000,25.003295,
15.005000,761.507693,15.002000,15.253555,14.938000,25.005265,
15.199000,759.716227,15.194000,15.238685,15.130000,25.005922,
15.390000,757.476893,15.387000,15.212895,15.323000,24.985307,
15.580000,755.685427,15.578000,15.204298,15.515000,24.978436,
15.775000,754.341827,15.771000,15.068099,15.707000,24.976145,
15.966000,752.998227,15.963000,15.022700,15.899000,25.108715,
16.159000,749.415293,16.156000,15.007567,16.092000,25.152905,
16.350000,746.728093,16.348000,15.002522,16.284000,25.167635,
16.543000,740.457960,16.540000,14.884174,16.477000,25.172545,
16.734000,743.145160,16.732000,14.844725,16.669000,25.174182,
16.926000,740.457960,16.925000,14.831575,16.861000,25.174727,
17.121000,737.322893,17.118000,14.827192,17.054000,25.174909,
17.313000,736.427160,17.309000,14.825731,17.246000,25.174970,
17.506000,735.531427,17.502000,14.691910,17.438000,25.174990,
17.696000,732.844227,17.694000,14.647303,17.631000,25.174997,
17.888000,731.052760,17.886000,14.632434,17.823000,25.174999,
18.083000,728.813427,18.079000,14.627478,18.015000,25.308333,
18.273000,725.678360,18.271000,14.625826,18.207000,25.352778,
18.465000,722.991160,18.463000,14.491942,18.400000,25.367593,
18.659000,720.303960,18.656000,14.447314,18.593000,25.372531,
18.849000,716.721027,18.848000,14.432438,18.785000,25.374177,
19.045000,712.690227,19.041000,14.427479,18.977000,25.374726,
19.236000,709.107293,19.233000,14.425826,19.169000,25.374909,
19.430000,708.211560,19.426000,14.425275,19.362000,25.374970,
19.621000,705.076493,19.618000,14.425092,19.554000,25.374990,
19.825000,704.180760,19.810000,14.291697,19.746000,25.374997,
20.005000,706.420093,20.003000,14.247232,19.940000,25.374999,
20.197000,705.076493,20.195000,14.232411,20.132000,25.375000,
20.391000,703.285027,20.388000,14.227470,20.324000,25.491667,
20.583000,700.597827,20.580000,14.225823,20.517000,25.530556,
20.776000,697.014893,20.773000,14.091941,20.709000,25.543519,
20.966000,694.327693,20.965000,14.047314,20.901000,25.547840,
21.158000,692.984093,21.157000,14.032438,21.094000,25.549280,
21.354000,692.984093,21.350000,14.027479,21.286000,25.549760,
21.543000,691.192627,21.542000,14.025826,21.478000,25.549920,
21.738000,687.161827,21.735000,14.025275,21.671000,25.549973,
21.928000,686.266093,21.927000,14.025092,21.863000,25.549991,
22.120000,681.787427,22.119000,13.908364,22.055000,25.683330,
22.314000,679.100227,22.311000,13.869455,22.248000,25.727777,
22.505000,673.725827,22.504000,13.856485,22.440000,25.742592,
22.699000,678.652360,22.696000,13.852162,22.632000,25.747531,
22.892000,677.308760,22.888000,13.850721,22.825000,25.749177,
23.084000,673.725827,23.081000,13.850240,23.017000,25.749726,
23.275000,670.590760,23.273000,13.850080,23.209000,25.749909,
23.467000,671.486493,23.465000,13.716693,23.401000,25.749970,
23.662000,670.590760,23.658000,13.672231,23.594000,25.749990,
23.851000,665.664227,23.850000,13.657410,23.786000,25.749997,
24.046000,664.768493,24.042000,13.652470,23.979000,25.749999,
24.236000,664.768493,24.235000,13.650823,24.171000,25.883333,
24.430000,662.977027,24.427000,13.650274,24.363000,25.927778,
24.624000,660.737693,24.620000,13.516758,24.556000,25.942593,
24.814000,658.946227,24.811000,13.605586,24.748000,25.947531,
25.013000,655.811160,25.004000,13.635195,24.941000,25.949177,
25.198000,654.467560,25.196000,13.511732,25.133000,25.949726,
25.392000,654.467560,25.389000,13.470577,25.325000,25.949909,
25.583000,652.228227,25.581000,13.456859,25.517000,25.949970,
25.775000,647.749560,25.773000,13.452286,25.710000,25.949990,
25.970000,645.958093,25.966000,13.450762,25.902000,25.949997,
26.160000,645.062360,26.158000,13.450254,26.094000,25.949999,
26.353000,642.823027,26.350000,13.450085,26.287000,25.950000,
26.545000,642.375160,26.543000,13.450028,26.479000,25.950000,
26.739000,640.135827,26.735000,13.316676,26.671000,26.083333,
26.931000,636.552893,26.928000,13.272225,26.864000,26.127778,
27.122000,632.969960,27.120000,13.257408,27.056000,26.142593,
27.316000,633.865693,27.312000,13.252469,27.248000,26.147531,
27.506000,632.074227,27.504000,13.250823,27.441000,26.149177,
27.698000,628.939160,27.696000,13.250274,27.633000,26.149726,
27.891000,627.595560,27.889000,13.250091,27.825000,26.149909,
28.084000,626.699827,28.081000,13.250030,28.018000,26.149970,
28.277000,625.804093,28.274000,13.250010,28.210000,26.149990,
28.467000,625.804093,28.466000,13.250003,28.402000,26.149997,
28.659000,625.804093,28.658000,13.250001,28.594000,26.149999,
28.852000,624.908360,28.850000,13.250000,28.787000,26.283333,
29.044000,623.116893,29.042000,13.116667,28.979000,26.327778,
29.239000,620.877560,29.235000,13.072222,29.171000,26.342593,
29.429000,618.190360,29.427000,13.057407,29.363000,26.347531,
29.620000,615.951027,29.619000,13.052469,29.556000,26.349177,
29.813000,615.055293,29.811000,13.050823,29.748000,26.349726,
30.005000,614.607427,30.004000,13.050274,29.940000,26.349909,
30.200000,612.368093,30.196000,13.050091,30.132000,26.349970,
30.391000,613.263827,30.388000,13.050030,30.324000,26.349990,
30.582000,609.680893,30.580000,13.050010,30.517000,26.349997,
30.774000,605.650093,30.773000,13.050003,30.709000,26.349999,
30.966000,601.171427,30.965000,13.050001,30.901000,26.350000,
31.159000,598.932093,31.157000,13.050000,31.094000,26.350000,
31.352000,596.244893,31.349000,12.933333,31.286000,26.466667,
31.546000,595.349160,31.542000,12.894444,31.478000,26.505556,
31.736000,594.453427,31.734000,12.881481,31.670000,26.518519,
31.928000,593.557693,31.926000,12.877160,31.862000,26.522840,
32.121000,591.318360,32.119000,12.875720,32.055000,26.524280,
32.313000,590.422627,32.311000,12.875240,32.248000,26.524760,
32.513000,588.631160,32.504000,12.875080,32.440000,26.524920,
32.698000,586.839693,32.696000,12.854193,32.632000,26.504140,
32.890000,585.496093,32.888000,12.868064,32.824000,26.518047,
33.083000,585.943960,33.081000,12.851855,33.017000,26.635182,
33.275000,587.287560,33.273000,12.846452,33.210000,26.674227,
33.467000,587.735427,33.466000,12.844651,33.402000,26.820576,
33.661000,585.496093,33.658000,12.844050,33.595000,26.869359,
33.857000,582.808893,33.853000,12.843850,33.788000,26.885620,
34.050000,581.017427,34.048000,12.843783,33.983000,26.891040,
34.247000,580.121693,34.243000,12.843761,34.178000,26.892847,
34.440000,576.986627,34.438000,12.710420,34.374000,27.026782,
34.637000,570.268627,34.633000,12.799307,34.569000,27.071427,
34.833000,572.060093,34.828000,12.828936,34.763000,27.086309,
35.031000,572.060093,35.023000,12.705479,34.958000,27.091270,
35.220000,571.612227,35.218000,12.664326,35.153000,27.226257,
35.417000,569.820760,35.413000,12.650609,35.348000,27.271252,
35.609000,567.581427,35.608000,12.646036,35.543000,27.286251,
35.806000,565.789960,35.803000,12.644512,35.738000,27.291250,
36.000000,564.446360,35.998000,12.644004,35.933000,27.409583,
36.197000,565.342093,36.193000,12.643835,36.128000,27.449028,
36.391000,566.237827,36.388000,12.643778,36.323000,27.462176,
36.588000,568.029293,36.583000,12.643759,36.518000,27.466559,
36.780000,568.029293,36.778000,12.643753,36.713000,27.468020,
36.978000,564.894227,36.973000,12.643751,36.908000,27.601840,
37.170000,562.654893,37.168000,12.643750,37.103000,27.646447,
37.368000,559.519827,37.364000,12.643750,37.298000,27.661316,
37.561000,559.967693,37.559000,12.643750,37.494000,27.666272,
37.755000,558.624093,37.754000,12.643750,37.689000,27.667924,
37.953000,555.489027,37.949000,12.643750,37.884000,27.668475,
38.148000,553.249693,38.144000,12.643750,38.079000,27.668658,
38.341000,550.114627,38.339000,12.643750,38.274000,27.668719,
38.538000,546.979560,38.534000,12.643750,38.469000,27.802073,
38.735000,545.188093,38.729000,12.510417,38.665000,27.846524,
38.929000,544.740227,38.924000,12.465972,38.859000,27.861341,
39.120000,542.500893,39.119000,12.451157,39.054000,27.999614,
39.318000,541.605160,39.314000,12.446219,39.249000,27.912371,
39.511000,539.365827,39.509000,12.444573,39.444000,28.016624,
39.712000,537.126493,39.704000,12.444024,39.640000,28.051375,
39.902000,534.439293,39.899000,12.577175,39.835000,28.062958,
40.102000,528.169160,40.095000,12.488225,40.029000,28.066819,
40.291000,531.304227,40.289000,12.458575,40.225000,28.068106,
40.489000,532.647827,40.485000,12.448692,40.420000,28.068535,
40.683000,531.304227,40.680000,12.445397,40.615000,28.068678,
40.876000,529.960627,40.874000,12.444299,40.810000,28.068726,
41.071000,525.481960,41.069000,12.443933,41.005000,28.068742,
41.269000,530.408493,41.265000,12.443811,41.201000,28.202081,
41.461000,529.064893,41.460000,12.443770,41.395000,28.113194,
41.659000,527.721293,41.655000,12.464590,41.590000,28.237731,
41.852000,527.273427,41.850000,12.471530,41.785000,28.279244,
42.049000,525.481960,42.045000,12.473843,41.980000,28.293081,
42.243000,522.794760,42.240000,12.474614,42.175000,28.297694,
42.440000,516.972493,42.435000,12.474871,42.371000,28.299231,
42.632000,515.628893,42.630000,12.474957,42.565000,28.299744,
42.827000,514.733160,42.825000,12.474986,42.760000,28.299915,
43.022000,515.628893,43.020000,12.474995,42.955000,28.299972,
43.221000,516.076760,43.215000,12.474998,43.150000,28.299991,
43.413000,513.837427,43.410000,12.474999,43.346000,28.433330,
43.610000,513.837427,43.605000,12.341666,43.541000,28.477777,
43.801000,514.285293,43.800000,12.430555,43.736000,28.492592,
44.001000,512.941693,43.996000,12.460185,43.931000,28.497531,
44.194000,511.598093,44.190000,12.470062,44.126000,28.499177,
44.391000,509.806627,44.386000,12.473354,44.321000,28.499726,
44.582000,505.775827,44.580000,12.474451,44.516000,28.499909,
44.780000,507.119427,44.776000,12.453984,44.711000,28.479136,
44.973000,506.223693,44.970000,12.467995,44.906000,28.493045,
45.168000,506.223693,45.165000,12.472665,45.101000,28.614348,
45.363000,505.327960,45.360000,12.474222,45.296000,28.654783,
45.558000,497.266360,45.556000,12.341407,45.491000,28.668261,
45.752000,499.057827,45.750000,12.297136,45.686000,28.672754,
45.949000,497.266360,45.946000,12.282379,45.881000,28.674251,
46.142000,496.370627,46.141000,12.277460,46.076000,28.674750,
46.340000,496.370627,46.336000,12.275820,46.271000,28.674917,
46.532000,495.474893,46.531000,12.408607,46.466000,28.808306,
46.728000,490.996227,46.726000,12.319536,46.661000,28.852769,
46.931000,488.309027,46.921000,12.423179,46.856000,28.867590,
47.121000,488.309027,47.116000,12.324393,47.051000,29.005863,
47.312000,486.069693,47.311000,12.291464,47.248000,29.051954,
47.510000,488.756893,47.506000,12.280488,47.441000,29.067318,
47.706000,486.517560,47.701000,12.255996,47.636000,29.051606,
47.897000,484.726093,47.896000,12.247832,47.831000,29.046369,
48.093000,485.173960,48.091000,12.245111,48.027000,29.044623,
48.291000,486.517560,48.287000,12.244204,48.222000,29.044041,
48.484000,486.965427,48.481000,12.243901,48.417000,29.043847,
48.682000,487.413293,48.677000,12.243800,48.612000,29.043782,
48.872000,485.173960,48.871000,12.243767,48.807000,29.177094,
49.072000,483.830360,49.067000,12.243756,49.002000,29.221531,
49.264000,479.351693,49.262000,12.243752,49.197000,29.236344,
49.462000,478.455960,49.457000,12.243751,49.392000,29.241281,
49.653000,478.008093,49.652000,12.243750,49.587000,29.242927,
49.851000,476.664493,49.847000,12.243750,49.782000,29.243476,
50.044000,476.216627,50.042000,12.243750,49.978000,29.243659,
50.239000,475.768760,50.237000,12.243750,50.173000,29.377053,
50.436000,473.081560,50.432000,12.243750,50.368000,29.288184,
50.630000,474.425160,50.627000,12.243750,50.563000,29.391895,
50.825000,473.081560,50.822000,12.243750,50.758000,29.426465,
51.022000,473.081560,51.018000,12.243750,50.953000,29.437988,
51.215000,472.633693,51.213000,12.243750,51.148000,29.441829,
51.412000,470.394360,51.408000,12.243750,51.343000,29.443110,
51.604000,469.050760,51.603000,12.243750,51.538000,29.560203,
51.803000,470.394360,51.799000,12.243750,51.733000,29.599234,
51.997000,472.185827,51.993000,12.243750,51.928000,29.612245,
52.190000,470.394360,52.188000,12.243750,52.124000,29.616582,
52.385000,468.155027,52.383000,12.243750,52.319000,29.618027,
52.583000,469.050760,52.579000,12.243750,52.514000,29.618509,
52.776000,468.155027,52.773000,12.243750,52.709000,29.618670,
52.970000,468.155027,52.968000,12.243750,52.904000,29.618723,
53.165000,466.363560,53.164000,12.243750,53.099000,29.752074,
53.361000,465.019960,53.358000,12.243750,53.294000,29.796525,
53.555000,462.780627,53.554000,12.243750,53.489000,29.811342,
53.754000,462.332760,53.749000,12.243750,53.685000,29.816281,
53.945000,460.989160,53.944000,12.243750,53.879000,29.817927,
54.141000,459.197693,54.139000,12.243750,54.074000,29.818476,
54.336000,456.062627,54.334000,12.243750,54.269000,29.818659,
54.531000,456.510493,54.529000,12.243750,54.465000,29.818720,
54.726000,454.719027,54.724000,12.243750,54.660000,29.818740,
54.922000,452.927560,54.921000,12.243750,54.856000,29.818747,
55.118000,451.583960,55.115000,12.243750,55.051000,29.952082,
55.313000,448.448893,55.311000,12.243750,55.246000,29.996527,
55.507000,447.553160,55.505000,12.243750,55.441000,30.011342,
55.706000,445.761693,55.701000,12.243750,55.636000,30.016281,
55.900000,445.313827,55.896000,12.243750,55.831000,30.017927,
56.096000,445.761693,56.091000,12.243750,56.026000,30.018476,
56.289000,446.209560,56.286000,12.243750,56.221000,30.018659,
56.484000,445.761693,56.481000,12.243750,56.416000,30.018720,
56.678000,445.313827,56.676000,12.243750,56.612000,30.152073,
56.873000,444.418093,56.871000,12.243750,56.807000,30.196524,
57.068000,443.074493,57.066000,12.243750,57.001000,30.211341,
57.265000,443.074493,57.261000,12.243750,57.197000,30.216280,
57.458000,442.178760,57.456000,12.243750,57.392000,30.217927,
57.653000,439.491560,57.651000,12.243750,57.587000,30.218476,
57.848000,436.804360,57.847000,12.243750,57.782000,30.218659,
58.043000,437.252227,58.042000,12.243750,57.977000,30.218720,
58.238000,434.565027,58.237000,12.243750,58.172000,30.218740,
58.434000,433.669293,58.432000,12.243750,58.367000,30.218747,
58.629000,433.669293,58.627000,12.243750,58.562000,30.218749,
58.824000,434.565027,58.822000,12.243750,58.757000,30.352083,
59.019000,435.460760,59.017000,12.243750,58.953000,30.396528,
59.215000,436.356493,59.212000,12.243750,59.148000,30.411343,
59.408000,436.804360,59.407000,12.243750,59.343000,30.416281,
59.604000,437.252227,59.602000,12.243750,59.538000,30.417927,
59.799000,436.804360,59.797000,12.243750,59.733000,30.418476,
59.994000,433.669293,59.993000,12.243750,59.928000,30.418659,
60.189000,430.982093,60.188000,12.243750,60.123000,30.418720,
60.384000,428.294893,60.383000,12.243750,60.318000,30.418740,
60.579000,423.816227,60.578000,12.243750,60.513000,30.418747,
60.776000,422.472627,60.773000,12.243750,60.708000,30.418749,
60.970000,422.472627,60.968000,12.243750,60.904000,30.535416,
61.166000,421.129027,61.163000,12.243750,61.099000,30.574305,
61.363000,417.546093,61.358000,12.243750,61.293000,30.587268,
