heat_flux_time_[ms],heat_flux_[W/m^2],thermocouple1_time_[ms],thermocouple1_[degC],thermocouple2_time_[ms],thermocouple2_[deg_C]
0.193000,699.567733,0.192000,22.312500,0.128000,23.862500,
0.385000,769.882800,0.384000,22.066667,0.320000,23.883333,
0.577000,823.626800,0.576000,21.584722,0.512000,23.890278,
0.770000,864.830533,0.769000,21.174074,0.705000,23.892593,
0.965000,897.524800,0.961000,20.903858,0.898000,23.893364,
1.160000,922.605333,1.153000,20.547119,1.090000,23.893621,
1.347000,942.759333,1.346000,20.311540,1.282000,23.893707,
1.540000,958.434667,1.538000,19.945513,1.475000,23.739569,
1.735000,969.631333,1.731000,19.690171,1.667000,23.821523,
1.925000,979.932267,1.922000,19.355057,1.859000,23.848841,
2.119000,985.306667,2.115000,19.110019,2.051000,23.857947,
2.313000,991.128933,2.308000,18.895006,2.244000,23.860982,
2.502000,993.816133,2.499000,18.690002,2.436000,23.861994,
2.695000,997.846933,2.692000,18.488334,2.628000,23.862331,
2.887000,997.399067,2.884000,18.441945,2.820000,23.883277,
3.081000,995.607600,3.077000,18.293148,3.012000,23.890259,
3.271000,999.190533,3.268000,18.126883,3.205000,24.025920,
3.463000,1001.429867,3.461000,17.938128,3.397000,23.937807,
3.658000,1001.429867,3.653000,17.741876,3.590000,23.908436,
3.848000,1001.429867,3.845000,17.522292,3.782000,23.877812,
4.039000,1000.086267,4.037000,17.449097,3.974000,24.000937,
4.231000,997.399067,4.230000,17.291366,4.166000,24.041979,
4.424000,996.951200,4.422000,17.238789,4.359000,24.055660,
4.616000,993.816133,4.614000,17.104596,4.551000,24.060220,
4.808000,990.681067,4.807000,16.926532,4.743000,24.061740,
5.003000,989.337467,4.999000,16.867177,4.936000,24.195580,
5.193000,987.993867,5.191000,16.714059,5.128000,24.106860,
5.387000,984.410933,5.383000,16.663020,5.320000,24.210620,
5.577000,983.067333,5.576000,16.646007,5.512000,24.245207,
5.769000,980.828000,5.768000,16.507002,5.704000,24.256736,
5.962000,979.036533,5.960000,16.460667,5.897000,24.260579,
6.154000,975.901467,6.152000,16.311889,6.089000,24.261860,
6.349000,974.557867,6.345000,16.262296,6.281000,24.262287,
6.538000,996.503333,6.537000,16.245765,6.474000,24.262429,
6.731000,974.110000,6.729000,16.123588,6.666000,24.262476,
6.927000,966.944133,6.922000,16.082863,6.858000,24.262492,
7.115000,964.256933,7.114000,15.935954,7.050000,24.262497,
7.307000,992.472533,7.306000,15.886985,7.242000,24.262499,
7.501000,958.882533,7.498000,15.737328,7.435000,24.262500,
7.692000,956.195333,7.691000,15.687443,7.627000,24.262500,
7.885000,962.913333,7.883000,15.670814,7.819000,24.262500,
8.077000,972.766400,8.075000,15.531938,8.012000,24.262500,
8.272000,948.581600,8.268000,15.485646,8.204000,24.379167,
8.463000,944.102933,8.460000,15.470215,8.396000,24.301389,
8.654000,956.643200,8.652000,15.465072,8.589000,24.392130,
8.848000,948.581600,8.845000,15.330024,8.781000,24.422377,
9.038000,933.354133,9.036000,15.285008,8.973000,24.432459,
9.233000,930.219067,9.229000,15.270003,9.165000,24.435820,
9.423000,927.084000,9.421000,15.131668,9.358000,24.436940,
9.616000,923.948933,9.614000,15.085556,9.550000,24.437313,
9.807000,922.605333,9.806000,15.070185,9.742000,24.437438,
10.001000,919.918133,9.998000,15.065062,9.934000,24.437479,
10.195000,917.678800,10.191000,14.946687,10.127000,24.437493,
10.385000,916.335200,10.383000,15.023896,10.319000,24.437498,
10.580000,935.145600,10.575000,14.932965,10.511000,24.437499,
10.769000,910.065067,10.767000,14.902655,10.704000,24.570833,
10.962000,906.034267,10.959000,14.892552,10.896000,24.481944,
11.156000,913.200133,11.152000,14.755851,11.088000,24.585648,
11.346000,911.408667,11.344000,14.710284,11.280000,24.620216,
11.540000,897.076933,11.537000,14.695095,11.473000,24.631739,
11.730000,906.482133,11.728000,14.690032,11.665000,24.635580,
11.923000,896.629067,11.921000,14.688344,11.857000,24.636860,
12.115000,885.432400,12.113000,14.687781,12.050000,24.637287,
12.307000,883.640933,12.305000,14.708427,12.241000,24.658262,
12.508000,881.849467,12.499000,14.581976,12.434000,24.665254,
12.693000,877.818667,12.691000,14.539825,12.627000,24.667585,
12.886000,877.370800,12.883000,14.525775,12.820000,24.668362,
13.076000,876.027200,13.075000,14.500258,13.011000,24.647787,
13.272000,871.996400,13.268000,14.491753,13.204000,24.640929,
13.464000,893.494000,13.460000,14.488918,13.396000,24.771976,
13.655000,883.640933,13.652000,14.508806,13.589000,24.836492,
13.848000,865.278400,13.845000,14.361269,13.781000,24.703831,
14.038000,863.486933,14.037000,14.445423,13.973000,24.792944,
14.231000,881.401600,14.229000,14.360974,14.166000,24.843481,
14.423000,876.475067,14.421000,14.332825,14.358000,24.860327,
14.617000,859.008267,14.614000,14.323442,14.550000,24.865942,
14.808000,880.953733,14.806000,14.320314,14.742000,24.867814,
15.000000,861.695467,14.998000,14.319271,14.935000,24.868438,
15.192000,850.498800,15.190000,14.318924,15.127000,24.868646,
15.388000,880.505867,15.383000,14.318808,15.319000,24.868715,
15.577000,845.572267,15.575000,14.318769,15.512000,24.868738,
15.771000,842.885067,15.768000,14.185423,15.704000,24.868746,
15.962000,846.020133,15.960000,14.140974,15.896000,24.868749,
16.153000,869.309200,16.152000,14.126158,16.088000,24.868750,
16.348000,839.302133,16.345000,14.121219,16.281000,24.868750,
16.539000,848.259467,16.537000,14.119573,16.473000,24.868750,
16.733000,854.081733,16.730000,14.119024,16.665000,25.002083,
16.923000,833.927733,16.921000,14.118841,16.858000,25.046528,
17.119000,833.032000,17.114000,14.002114,17.050000,25.061343,
17.308000,849.155200,17.306000,13.963205,17.243000,25.066281,
17.500000,838.406400,17.498000,13.950235,17.436000,25.067927,
17.692000,827.657600,17.691000,13.945912,17.627000,25.068476,
17.886000,850.946667,17.883000,13.944471,17.820000,25.068659,
18.080000,827.209733,18.076000,13.943990,18.012000,25.068720,
18.269000,820.491733,18.268000,13.943830,18.204000,25.068740,
18.462000,820.939600,18.460000,13.943777,18.397000,25.068747,
18.655000,849.155200,18.653000,13.943759,18.590000,25.068749,
18.847000,815.117333,18.845000,13.943753,18.782000,25.068750,
19.042000,811.534400,19.038000,13.943751,18.974000,25.068750,
19.231000,823.178933,19.230000,13.810417,19.166000,25.068750,
19.424000,832.136267,19.422000,13.765972,19.359000,25.068750,
19.617000,807.951467,19.615000,13.751157,19.551000,25.068750,
19.810000,807.055733,19.807000,13.746219,19.744000,25.068750,
20.003000,803.920667,20.000000,13.744573,19.936000,25.202083,
20.195000,804.368533,20.192000,13.744024,20.128000,25.113194,
20.388000,803.472800,20.385000,13.743841,20.321000,25.216898,
20.578000,802.577067,20.576000,13.743780,20.513000,25.251466,
20.771000,798.994133,20.769000,13.743760,20.706000,25.262989,
20.966000,795.411200,20.962000,13.743753,20.898000,25.266830,
21.156000,795.411200,21.154000,13.743751,21.090000,25.268110,
21.350000,794.515467,21.347000,13.743750,21.282000,25.268537,
21.541000,793.171867,21.538000,13.610417,21.475000,25.268679,
21.732000,790.036800,21.731000,13.565972,21.668000,25.268726,
21.925000,790.036800,21.923000,13.551157,21.860000,25.268742,
22.117000,790.484667,22.116000,13.546219,22.052000,25.268747,
22.316000,788.693200,22.308000,13.544573,22.244000,25.268749,
22.503000,789.588933,22.500000,13.544024,22.437000,25.268750,
22.699000,788.245333,22.693000,13.543841,22.629000,25.268750,
22.887000,788.245333,22.885000,13.543780,22.822000,25.268750,
23.080000,787.349600,23.078000,13.543760,23.014000,25.268750,
23.271000,785.558133,23.270000,13.543753,23.207000,25.268750,
23.465000,784.214533,23.463000,13.543751,23.399000,25.402083,
23.659000,784.662400,23.655000,13.410417,23.591000,25.446528,
23.850000,781.079467,23.847000,13.365972,23.784000,25.461343,
24.042000,776.152933,24.039000,13.351157,23.976000,25.466281,
24.234000,773.017867,24.232000,13.346219,24.169000,25.467927,
24.426000,770.330667,24.424000,13.344573,24.361000,25.468476,
24.621000,768.987067,24.617000,13.344024,24.553000,25.468659,
24.811000,766.747733,24.809000,13.343841,24.746000,25.468720,
25.003000,768.091333,25.001000,13.343780,24.938000,25.468740,
25.195000,770.778533,25.194000,13.343760,25.130000,25.468747,
25.388000,770.330667,25.386000,13.343753,25.322000,25.468749,
25.582000,767.643467,25.579000,13.343751,25.515000,25.468750,
25.773000,765.404133,25.771000,13.343750,25.708000,25.468750,
25.967000,766.299867,25.963000,13.343750,25.900000,25.468750,
26.157000,762.269067,26.156000,13.343750,26.092000,25.468750,
26.350000,759.581867,26.348000,13.210417,26.285000,25.468750,
26.543000,757.790400,26.540000,13.165972,26.477000,25.468750,
26.735000,758.238267,26.733000,13.284491,26.669000,25.468750,
26.928000,755.998933,26.926000,13.190664,26.862000,25.468750,
27.120000,754.655333,27.118000,13.159388,27.054000,25.468750,
27.311000,753.311733,27.310000,13.148963,27.247000,25.468750,
27.504000,751.072400,27.502000,13.145488,27.439000,25.468750,
27.697000,748.833067,27.695000,13.144329,27.631000,25.468750,
27.892000,745.698000,27.888000,13.143943,27.824000,25.585417,
28.083000,746.145867,28.080000,13.143814,28.016000,25.624306,
28.277000,743.010800,28.272000,13.143771,28.209000,25.637269,
28.467000,743.906533,28.464000,13.143757,28.401000,25.641590,
28.658000,744.354400,28.657000,13.143752,28.593000,25.643030,
28.854000,744.354400,28.850000,13.143751,28.786000,25.643510,
29.043000,741.219333,29.041000,13.143750,28.978000,25.643670,
29.237000,741.219333,29.234000,13.143750,29.170000,25.643723,
29.427000,740.323600,29.426000,13.143750,29.362000,25.643741,
29.620000,736.292800,29.619000,13.027083,29.555000,25.643747,
29.812000,736.292800,29.811000,13.104861,29.748000,25.643749,
30.007000,730.022667,30.004000,13.130787,29.940000,25.643750,
30.202000,728.231200,30.197000,13.139429,30.133000,25.643750,
30.390000,729.574800,30.389000,13.142310,30.326000,25.643750,
30.586000,728.679067,30.581000,13.026603,30.518000,25.777083,
30.778000,726.887600,30.774000,13.104701,30.710000,25.688194,
30.968000,725.991867,30.966000,13.130734,30.903000,25.658565,
31.163000,724.648267,31.159000,13.022745,31.095000,25.782022,
31.353000,723.304667,31.351000,12.986748,31.287000,25.689841,
31.547000,721.961067,31.543000,12.974749,31.479000,25.792447,
31.737000,720.617467,31.735000,12.970750,31.672000,25.826649,
31.929000,718.378133,31.928000,12.969417,31.864000,25.838050,
32.124000,716.138800,32.120000,13.085639,32.056000,25.841850,
32.315000,715.243067,32.312000,13.124380,32.249000,25.843117,
32.506000,717.034533,32.505000,13.020627,32.441000,25.843539,
32.698000,715.243067,32.697000,12.986042,32.633000,25.843680,
32.890000,713.899467,32.889000,12.974514,32.827000,25.843727,
33.083000,713.003733,33.081000,12.970671,33.018000,25.843742,
33.275000,711.212267,33.274000,12.969390,33.211000,25.843747,
33.470000,711.212267,33.466000,12.968963,33.403000,25.843749,
33.662000,709.868667,33.659000,12.947988,33.595000,25.822916,
33.852000,708.525067,33.851000,12.940996,33.787000,25.815972,
34.046000,707.629333,34.043000,12.938665,33.979000,25.813657,
34.243000,707.629333,34.235000,12.937888,34.172000,25.812886,
34.428000,705.390000,34.427000,12.937629,34.364000,25.812629,
34.621000,702.702800,34.620000,12.937543,34.556000,25.812543,
34.814000,699.567733,34.812000,12.937514,34.748000,25.812514,
35.008000,700.463467,35.005000,12.937505,34.941000,25.812505,
35.200000,700.015600,35.197000,12.958335,35.133000,25.833335,
35.393000,702.702800,35.389000,12.965278,35.325000,25.840278,
35.584000,701.807067,35.581000,12.946759,35.517000,25.821759,
35.776000,697.328400,35.773000,12.940586,35.710000,25.815586,
35.967000,698.224133,35.966000,12.938529,35.902000,25.946862,
36.159000,701.807067,36.158000,12.937843,36.095000,25.990621,
36.352000,702.254933,36.350000,12.937614,36.287000,26.005207,
36.544000,696.880533,36.542000,12.958371,36.479000,26.030902,
36.738000,696.432667,36.735000,12.965290,36.671000,26.039467,
36.929000,695.536933,36.927000,12.967597,36.864000,26.042322,
37.121000,693.745467,37.119000,12.968366,37.056000,26.043274,
37.313000,694.641200,37.312000,12.968622,37.248000,26.043591,
37.505000,693.745467,37.504000,12.968707,37.441000,26.043697,
37.701000,688.818933,37.697000,12.968736,37.633000,26.043732,
37.891000,689.266800,37.889000,12.968745,37.825000,26.043744,
38.082000,691.506133,38.081000,12.968748,38.018000,26.043748,
38.275000,690.610400,38.273000,12.968749,38.210000,26.043749,
38.469000,687.923200,38.465000,12.968750,38.402000,26.043750,
38.660000,687.027467,38.658000,12.968750,38.594000,26.043750,
38.852000,686.131733,38.850000,12.968750,38.787000,26.043750,
39.044000,686.131733,39.042000,12.968750,38.979000,26.043750,
39.239000,683.444533,39.235000,12.968750,39.172000,26.043750,
39.430000,685.236000,39.428000,12.968750,39.364000,26.043750,
39.623000,684.788133,39.620000,12.968750,39.557000,26.043750,
39.814000,683.444533,39.813000,12.968750,39.749000,26.043750,
40.011000,678.518000,40.008000,12.968750,39.943000,26.043750,
40.205000,679.861600,40.202000,12.968750,40.138000,26.043750,
40.399000,683.444533,40.396000,12.968750,40.332000,26.043750,
40.592000,684.340267,40.588000,12.968750,40.524000,26.043750,
40.781000,687.027467,40.780000,12.835417,40.717000,26.043750,
40.976000,685.683867,40.973000,12.924306,40.908000,26.177083,
41.167000,683.444533,41.165000,12.820602,41.101000,26.088194,
41.364000,678.518000,41.361000,12.786034,41.296000,26.058565,
41.557000,677.174400,41.555000,12.774511,41.491000,26.048688,
41.755000,676.278667,41.751000,12.770670,41.686000,26.045396,
41.948000,677.174400,41.945000,12.769390,41.881000,26.044299,
42.145000,674.935067,42.141000,12.768963,42.076000,26.043933,
42.337000,673.143600,42.335000,12.768821,42.271000,26.043811,
42.532000,671.800000,42.530000,12.902107,42.466000,26.043770,
42.727000,669.560667,42.725000,12.813202,42.661000,26.177090,
42.925000,667.321333,42.921000,12.783567,42.856000,26.088197,
43.117000,669.560667,43.115000,12.773689,43.051000,26.058566,
43.318000,669.112800,43.311000,12.770396,43.246000,26.048689,
43.507000,670.008533,43.505000,12.769299,43.441000,26.178730,
43.703000,671.800000,43.700000,12.768933,43.636000,26.222077,
43.898000,674.487200,43.895000,12.768811,43.831000,26.236526,
44.094000,674.039333,44.090000,12.768770,44.026000,26.241342,
44.287000,674.935067,44.285000,12.768757,44.221000,26.242947,
44.481000,674.935067,44.480000,12.768752,44.416000,26.243482,
44.677000,676.278667,44.675000,12.768751,44.611000,26.243661,
44.872000,675.382933,44.870000,12.768750,44.806000,26.243720,
45.067000,672.247867,45.065000,12.768750,45.001000,26.243740,
45.262000,672.695733,45.260000,12.768750,45.196000,26.243747,
45.456000,671.352133,45.455000,12.768750,45.391000,26.243749,
45.651000,670.456400,45.650000,12.768750,45.585000,26.243750,
45.846000,668.217067,45.845000,12.768750,45.781000,26.243750,
46.043000,672.247867,46.040000,12.768750,45.976000,26.243750,
46.237000,671.352133,46.235000,12.768750,46.171000,26.243750,
46.432000,670.904267,46.430000,12.768750,46.366000,26.243750,
46.627000,669.560667,46.625000,12.768750,46.561000,26.243750,
46.822000,669.560667,46.820000,12.768750,46.756000,26.243750,
47.016000,668.664933,47.015000,12.768750,46.951000,26.243750,
47.212000,667.769200,47.210000,12.768750,47.146000,26.243750,
47.406000,661.499067,47.405000,12.768750,47.341000,26.243750,
47.602000,662.842667,47.601000,12.768750,47.537000,26.243750,
47.797000,663.290533,47.796000,12.768750,47.732000,26.243750,
47.993000,663.738400,47.991000,12.635417,47.927000,26.243750,
48.187000,665.082000,48.186000,12.724306,48.122000,26.243750,
48.382000,660.155467,48.381000,12.753935,48.316000,26.377083,
48.579000,657.020400,48.576000,12.630478,48.511000,26.288194,
48.775000,658.364000,48.771000,12.722659,48.707000,26.258565,
48.968000,657.468267,48.966000,12.620053,48.902000,26.382022,
49.163000,656.124667,49.161000,12.719184,49.097000,26.289841,
49.357000,654.333200,49.356000,12.752228,49.292000,26.392447,
49.553000,652.541733,49.551000,12.763243,49.487000,26.426649,
49.748000,651.198133,49.746000,12.633581,49.682000,26.438050,
49.944000,649.406667,49.941000,12.723694,49.876000,26.441850,
50.139000,649.854533,50.136000,12.753731,50.071000,26.443117,
50.333000,649.406667,50.332000,12.630410,50.267000,26.443539,
50.528000,648.958800,50.526000,12.589303,50.462000,26.443680,
50.725000,648.063067,50.721000,12.708934,50.656000,26.443727,
50.918000,647.167333,50.916000,12.748811,50.851000,26.443742,
51.113000,644.480133,51.111000,12.762104,51.046000,26.443747,
51.307000,644.032267,51.306000,12.766535,51.241000,26.443749,
51.503000,644.928000,51.501000,12.768012,51.436000,26.443750,
51.697000,646.719467,51.696000,12.768504,51.631000,26.443750,
51.892000,648.510933,51.891000,12.768668,51.826000,26.443750,
52.088000,645.823733,52.086000,12.768723,52.021000,26.443750,
52.286000,647.615200,52.281000,12.635408,52.216000,26.443750,
52.477000,647.167333,52.476000,12.590969,52.411000,26.443750,
52.673000,645.375867,52.671000,12.709490,52.606000,26.443750,
52.867000,647.167333,52.866000,12.748997,52.801000,26.443750,
53.065000,650.302400,53.061000,12.762166,52.996000,26.443750,
53.259000,648.510933,53.256000,12.766555,53.191000,26.443750,
53.455000,649.406667,53.451000,12.768018,53.386000,26.443750,
53.648000,650.302400,53.646000,12.768506,53.581000,26.443750,
53.842000,652.093867,53.841000,12.768669,53.776000,26.443750,
54.037000,649.406667,54.036000,12.768723,53.971000,26.443750,
54.234000,645.823733,54.231000,12.768741,54.166000,26.443750,
54.427000,647.167333,54.426000,12.768747,54.361000,26.443750,
54.625000,645.823733,54.621000,12.747916,54.556000,26.422917,
54.819000,646.719467,54.816000,12.761805,54.751000,26.436806,
55.017000,645.375867,55.012000,12.766435,54.946000,26.441435,
55.209000,646.271600,55.206000,12.767978,55.141000,26.442978,
55.405000,646.271600,55.401000,12.768493,55.336000,26.443493,
55.600000,644.032267,55.596000,12.768664,55.531000,26.443664,
55.795000,644.480133,55.791000,12.747888,55.726000,26.422888,
55.989000,644.928000,55.986000,12.761796,55.921000,26.436796,
56.184000,641.792933,56.181000,12.745599,56.116000,26.420599,
56.379000,638.210000,56.376000,12.761033,56.311000,26.436033,
56.575000,637.314267,56.571000,12.745344,56.506000,26.420344,
56.768000,637.314267,56.766000,12.760948,56.701000,26.435948,
56.965000,636.866400,56.961000,12.766149,56.896000,26.441149,
57.159000,638.657867,57.156000,12.767883,57.091000,26.442883,
57.355000,635.970667,57.351000,12.768461,57.287000,26.443461,
57.549000,635.522800,57.546000,12.768654,57.482000,26.443654,
57.743000,635.522800,57.741000,12.768718,57.677000,26.443718,
57.939000,636.866400,57.936000,12.768739,57.872000,26.443739,
58.137000,634.179200,58.132000,12.768746,58.067000,26.443746,
58.328000,635.522800,58.326000,12.768749,58.262000,26.443749,
58.523000,636.866400,58.521000,12.768750,58.457000,26.443750,
58.721000,636.866400,58.717000,12.768750,58.652000,26.443750,
58.917000,635.970667,58.912000,12.768750,58.847000,26.443750,
59.109000,633.283467,59.107000,12.768750,59.042000,26.443750,
59.307000,632.387733,59.302000,12.768750,59.237000,26.443750,
59.499000,634.179200,59.497000,12.768750,59.432000,26.443750,
59.693000,634.627067,59.692000,12.768750,59.627000,26.443750,
59.889000,634.179200,59.887000,12.768750,59.823000,26.443750,
60.087000,635.970667,60.082000,12.768750,60.018000,26.443750,
60.282000,636.418533,60.278000,12.768750,60.212000,26.560417,
60.477000,635.074933,60.473000,12.768750,60.408000,26.482639,
60.669000,638.657867,60.667000,12.768750,60.603000,26.456713,
60.867000,639.105733,60.863000,12.768750,60.797000,26.448071,
61.059000,636.866400,61.057000,12.768750,60.993000,26.445190,
61.255000,633.283467,61.253000,12.768750,61.188000,26.444230,
