heat_flux_time_[ms],heat_flux_[W/m^2],thermocouple1_time_[ms],thermocouple1_[degC],thermocouple2_time_[ms],thermocouple2_[deg_C]
0.193000,523.242627,0.191000,22.593750,0.127000,23.968750,
0.385000,606.993693,0.383000,22.460417,0.319000,23.968750,
0.579000,672.382227,0.575000,22.165972,0.511000,23.968750,
0.769000,724.334760,0.767000,21.934491,0.703000,23.968750,
0.961000,764.194893,0.959000,21.457330,0.895000,23.968750,
1.152000,798.232760,1.151000,21.048277,1.087000,23.968750,
1.345000,823.761160,1.343000,20.778592,1.279000,23.968750,
1.536000,845.258760,1.535000,20.422031,1.471000,23.968750,
1.729000,862.277693,1.727000,20.186510,1.663000,23.968750,
1.924000,874.817960,1.919000,19.974670,1.855000,23.968750,
2.112000,885.118893,2.111000,19.616557,2.047000,23.947917,
2.304000,894.076227,2.303000,19.247186,2.239000,23.940972,
2.499000,900.794227,2.495000,19.144895,2.431000,23.959491,
2.689000,906.616493,2.686000,18.823298,2.623000,23.944830,
2.880000,911.095160,2.878000,18.582766,2.815000,23.939943,
3.074000,911.095160,3.070000,18.502589,3.007000,23.938314,
3.264000,915.573827,3.262000,18.342530,3.199000,23.937771,
3.462000,912.438760,3.455000,18.039177,3.391000,23.937590,
3.648000,918.708893,3.646000,17.958892,3.583000,23.958363,
3.840000,921.843960,3.838000,17.777964,3.775000,23.944454,
4.032000,922.291827,4.030000,17.605155,3.967000,23.960651,
4.224000,923.187560,4.222000,17.393385,4.159000,23.945217,
4.418000,922.291827,4.414000,17.322795,4.350000,23.940072,
4.607000,921.843960,4.606000,17.165932,4.543000,23.938357,
4.800000,920.948227,4.798000,16.996977,4.735000,23.937786,
4.991000,919.604627,4.990000,16.828159,4.927000,23.958429,
5.184000,914.230227,5.182000,16.771886,5.119000,24.098643,
5.379000,910.199427,5.375000,16.619795,5.311000,24.145381,
5.568000,911.990893,5.566000,16.569098,5.503000,24.160960,
5.761000,910.647293,5.759000,16.418866,5.696000,24.166153,
5.972000,909.303693,5.951000,16.214622,5.888000,24.147051,
6.178000,907.064360,6.144000,16.167374,6.080000,24.161517,
6.337000,904.825027,6.335000,16.034958,6.271000,24.166339,
6.530000,902.585693,6.527000,15.990819,6.464000,24.167946,
6.721000,900.346360,6.719000,15.842773,6.656000,24.168482,
6.913000,898.554893,6.911000,15.772591,6.848000,24.147827,
7.105000,896.763427,7.103000,15.615864,7.040000,24.140942,
7.305000,894.524093,7.295000,15.563621,7.232000,24.138647,
7.489000,893.180493,7.487000,15.412874,7.424000,24.137882,
7.681000,890.941160,7.679000,15.362625,7.615000,24.254294,
7.873000,887.358227,7.871000,15.212542,7.808000,24.293098,
8.065000,886.910360,8.063000,15.162514,7.999000,24.306033,
8.261000,882.879560,8.255000,15.012505,8.191000,24.310344,
8.450000,881.983827,8.447000,14.983335,8.383000,24.332615,
8.641000,903.929293,8.639000,14.856945,8.575000,24.340038,
8.833000,876.161560,8.831000,14.814815,8.767000,24.342513,
9.025000,872.578627,9.023000,14.800772,8.959000,24.343338,
9.217000,877.505160,9.215000,14.662757,9.151000,24.343613,
9.409000,887.358227,9.407000,14.616752,9.344000,24.343704,
9.601000,863.173427,9.599000,14.468084,9.535000,24.477068,
9.797000,859.590493,9.791000,14.418528,9.727000,24.521523,
9.985000,871.235027,9.983000,14.402009,9.919000,24.536341,
10.178000,864.517027,10.175000,14.396503,10.111000,24.541280,
10.369000,848.841693,10.367000,14.261334,10.303000,24.542927,
10.561000,845.706627,10.559000,14.216278,10.495000,24.543476,
10.752000,864.069160,10.751000,14.067926,10.687000,24.676992,
10.954000,844.363027,10.943000,14.018475,10.879000,24.721497,
11.146000,837.197160,11.135000,13.885325,11.071000,24.736332,
11.329000,860.038360,11.327000,13.840942,11.263000,24.741277,
11.531000,830.927027,11.519000,13.826147,11.455000,24.742926,
11.712000,829.135560,11.711000,13.687882,11.647000,24.743475,
11.908000,845.258760,11.903000,13.641794,11.839000,24.876992,
12.105000,821.521827,12.095000,13.626431,12.031000,24.921497,
12.290000,817.491027,12.287000,13.487977,12.223000,24.936332,
12.482000,826.896227,12.479000,13.441826,12.415000,24.941277,
12.674000,828.687693,12.671000,13.426442,12.607000,24.942926,
12.864000,811.668760,12.863000,13.421314,12.799000,25.076809,
13.059000,809.877293,13.055000,13.286271,12.991000,25.121436,
13.250000,822.417560,13.247000,13.241257,13.184000,25.136312,
13.441000,812.564493,13.439000,13.226252,13.376000,25.274604,
13.634000,802.263560,13.631000,13.221251,13.568000,25.320701,
13.826000,823.313293,13.824000,13.086250,13.760000,25.336067,
14.020000,800.024227,14.016000,13.041250,13.952000,25.457856,
14.212000,794.649827,14.208000,13.026250,14.144000,25.498452,
14.401000,795.097693,14.400000,12.904583,14.336000,25.645317,
14.593000,815.699560,14.592000,12.864028,14.529000,25.694272,
14.797000,789.275427,14.784000,12.850509,14.721000,25.710591,
14.981000,801.367827,14.976000,12.846003,14.912000,25.849364,
15.170000,803.159293,15.168000,12.711168,15.105000,25.895621,
15.362000,800.472093,15.360000,12.666223,15.296000,25.911040,
15.565000,797.337027,15.552000,12.630408,15.489000,25.895347,
15.747000,784.796760,15.744000,12.618469,15.681000,25.890116,
15.940000,783.005293,15.936000,12.614490,15.873000,25.888372,
16.130000,781.213827,16.128000,12.479830,16.065000,25.887791,
16.322000,776.287293,16.320000,12.434943,16.257000,26.020930,
16.517000,772.704360,16.513000,12.419981,16.450000,26.065310,
16.706000,769.569293,16.704000,12.281660,16.641000,26.080103,
16.900000,766.882093,16.897000,12.235553,16.833000,26.085034,
17.091000,765.090627,17.089000,12.220184,17.025000,26.086678,
17.282000,761.507693,17.281000,12.215061,17.217000,26.220559,
17.474000,758.820493,17.473000,12.213354,17.409000,26.265186,
17.666000,756.133293,17.665000,12.233618,17.601000,26.300895,
17.861000,751.654627,17.857000,12.086206,17.793000,26.291965,
18.052000,751.206760,18.049000,12.037069,17.985000,26.288988,
18.243000,748.967427,18.241000,12.041523,18.177000,26.308829,
18.435000,746.280227,18.433000,12.043008,18.369000,26.432110,
18.627000,741.801560,18.625000,11.910169,18.562000,26.473203,
18.819000,740.457960,18.817000,11.865890,18.754000,26.486901,
19.011000,738.218627,19.009000,11.851130,18.946000,26.491467,
19.212000,737.770760,19.201000,11.846210,19.138000,26.492989,
19.396000,736.875027,19.393000,11.844570,19.329000,26.493496,
19.594000,733.292093,19.586000,11.844023,19.522000,26.626999,
19.782000,730.604893,19.778000,11.727174,19.714000,26.671500,
19.972000,727.469827,19.970000,11.688225,19.906000,26.686333,
20.163000,721.199693,20.162000,11.675242,20.098000,26.691278,
20.355000,717.168893,20.354000,11.670914,20.290000,26.692926,
20.547000,715.377427,20.546000,11.669471,20.482000,26.693475,
20.739000,712.690227,20.738000,11.668990,20.674000,26.693658,
20.932000,711.794493,20.930000,11.535497,20.867000,26.693719,
21.124000,708.659427,21.122000,11.490999,21.059000,26.827073,
21.316000,705.972227,21.314000,11.476166,21.251000,26.871524,
21.517000,703.732893,21.506000,11.471222,21.443000,26.886341,
21.700000,701.493560,21.699000,11.469574,21.635000,26.891280,
21.893000,701.941427,21.891000,11.469025,21.827000,26.892927,
22.084000,703.285027,22.083000,11.468842,22.019000,27.026809,
22.277000,701.941427,22.275000,11.335447,22.211000,27.071436,
22.469000,700.149960,22.467000,11.290982,22.403000,27.086312,
22.661000,697.014893,22.659000,11.276161,22.595000,27.091271,
22.853000,695.223427,22.851000,11.271220,22.787000,27.226257,
23.045000,694.775560,23.043000,11.269573,22.980000,27.271252,
23.238000,694.327693,23.236000,11.269024,23.173000,27.286251,
23.430000,690.744760,23.428000,11.135508,23.365000,27.291250,
23.625000,685.818227,23.621000,11.091003,23.556000,27.292917,
23.814000,682.235293,23.813000,11.076168,23.749000,27.410139,
24.009000,679.548093,24.005000,11.071223,23.941000,27.449213,
24.199000,675.517293,24.197000,11.069574,24.133000,27.462238,
24.390000,673.277960,24.389000,11.069025,24.325000,27.466579,
24.582000,672.830093,24.581000,11.068842,24.518000,27.468026,
24.775000,671.934360,24.773000,11.068781,24.709000,27.468509,
24.969000,670.590760,24.965000,11.068760,24.901000,27.602003,
25.159000,668.351427,25.157000,11.068753,25.093000,27.646501,
25.351000,666.559960,25.349000,11.068751,25.286000,27.661334,
25.543000,662.529160,25.541000,11.068750,25.478000,27.666278,
25.735000,659.841960,25.733000,10.935417,25.670000,27.667926,
25.930000,658.050493,25.926000,11.024306,25.862000,27.668475,
26.120000,657.602627,26.117000,10.920602,26.054000,27.668658,
26.311000,656.706893,26.310000,10.886034,26.246000,27.668719,
26.504000,654.019693,26.502000,10.874511,26.438000,27.802073,
26.695000,652.676093,26.694000,10.870670,26.630000,27.846524,
26.891000,650.436760,26.887000,10.869390,26.822000,27.861341,
27.081000,649.988893,27.078000,10.868963,27.014000,27.866280,
27.272000,648.645293,27.270000,10.868821,27.206000,27.867927,
27.464000,645.958093,27.462000,10.868774,27.398000,27.868476,
27.656000,643.718760,27.654000,10.752091,27.591000,28.001992,
27.849000,642.375160,27.847000,10.713197,27.783000,28.046497,
28.039000,640.583693,28.038000,10.700232,27.975000,28.061332,
28.232000,638.344360,28.230000,10.695911,28.167000,28.066277,
28.428000,637.000760,28.423000,10.694470,28.359000,28.067926,
28.624000,634.313560,28.615000,10.693990,28.551000,28.068475,
28.810000,632.522093,28.808000,10.693830,28.743000,28.201992,
29.001000,628.043427,28.999000,10.693777,28.935000,28.113164,
29.192000,628.491293,29.191000,10.693759,29.127000,28.216888,
29.385000,627.147693,29.383000,10.693753,29.319000,28.251463,
29.577000,625.356227,29.575000,10.693751,29.511000,28.262988,
29.768000,624.012627,29.767000,10.693750,29.703000,28.266829,
29.961000,621.773293,29.959000,10.693750,29.895000,28.268110,
30.152000,618.190360,30.151000,10.693750,30.087000,28.268537,
30.345000,615.951027,30.343000,10.560417,30.279000,28.402012,
30.539000,613.711693,30.535000,10.515972,30.471000,28.446504,
30.729000,611.024493,30.728000,10.501157,30.663000,28.461335,
30.922000,610.128760,30.919000,10.496219,30.855000,28.466278,
31.112000,607.889427,31.111000,10.494573,31.047000,28.467926,
31.305000,605.202227,31.303000,10.494024,31.239000,28.468475,
31.497000,605.202227,31.495000,10.493841,31.431000,28.468658,
31.688000,605.202227,31.687000,10.493780,31.623000,28.585386,
31.880000,619.981827,31.879000,10.493760,31.815000,28.624295,
32.073000,598.484227,32.071000,10.493753,32.007000,28.637265,
32.265000,598.932093,32.263000,10.493751,32.199000,28.641588,
32.456000,608.785160,32.455000,10.493750,32.391000,28.643029,
32.648000,612.815960,32.647000,10.493750,32.583000,28.643510,
32.842000,594.453427,32.839000,10.493750,32.775000,28.777003,
33.032000,600.723560,33.031000,10.493750,32.967000,28.821501,
33.224000,603.858627,33.223000,10.493750,33.159000,28.836334,
33.416000,605.650093,33.415000,10.493750,33.351000,28.841278,
33.610000,600.723560,33.607000,10.493750,33.543000,28.842926,
33.803000,599.827827,33.799000,10.493750,33.735000,28.843475,
33.992000,597.588493,33.991000,10.493750,33.927000,28.843658,
34.184000,591.766227,34.183000,10.493750,34.119000,28.977053,
34.377000,591.318360,34.375000,10.493750,34.311000,29.021518,
34.568000,589.526893,34.567000,10.493750,34.503000,29.169673,
34.760000,585.496093,34.759000,10.360417,34.695000,29.219058,
34.954000,582.361027,34.951000,10.449306,34.887000,29.235519,
35.145000,581.465293,35.143000,10.478935,35.079000,29.241006,
35.336000,583.704627,35.335000,10.488812,35.271000,29.376169,
35.528000,586.839693,35.527000,10.358771,35.463000,29.421223,
35.720000,584.152493,35.719000,10.448757,35.655000,29.436241,
35.912000,581.017427,35.911000,10.478752,35.847000,29.441247,
36.104000,581.017427,36.103000,10.355417,36.039000,29.559582,
36.296000,571.612227,36.295000,10.314306,36.231000,29.599027,
36.488000,556.832627,36.487000,10.300602,36.423000,29.612176,
36.681000,555.489027,36.679000,10.429367,36.615000,29.616559,
36.873000,559.519827,36.871000,10.338956,36.807000,29.751353,
37.065000,556.384760,37.063000,10.442152,36.999000,29.796284,
37.257000,549.666760,37.255000,10.343217,37.191000,29.811261,
37.448000,545.635960,37.447000,10.310239,37.383000,29.816254,
37.640000,551.458227,37.639000,10.299246,37.575000,29.817918,
37.832000,549.218893,37.831000,10.295582,37.767000,29.951806,
38.024000,547.875293,38.023000,10.294361,37.959000,29.996435,
38.216000,542.500893,38.215000,10.293954,38.151000,30.011312,
38.408000,546.083827,38.407000,10.293818,38.343000,30.016271,
38.601000,542.053027,38.599000,10.293773,38.535000,30.017924,
38.792000,538.470093,38.791000,10.293758,38.727000,30.018475,
38.985000,535.782893,38.983000,10.293753,38.919000,30.151992,
39.177000,533.095693,39.175000,10.293751,39.112000,30.196497,
39.369000,532.199960,39.367000,10.293750,39.303000,30.211332,
39.561000,533.543560,39.559000,10.293750,39.495000,30.216277,
39.752000,533.543560,39.751000,10.293750,39.687000,30.217926,
39.947000,533.095693,39.943000,10.293750,39.879000,30.351809,
40.136000,530.856360,40.135000,10.293750,40.071000,30.263103,
40.328000,528.617027,40.327000,10.293750,40.263000,30.366868,
40.520000,527.273427,40.519000,10.293750,40.455000,30.401456,
40.713000,526.377693,40.712000,10.293750,40.647000,30.412985,
40.906000,525.034093,40.904000,10.293750,40.840000,30.416828,
41.098000,525.034093,41.096000,10.293750,41.032000,30.418109,
41.289000,524.138360,41.288000,10.293750,41.224000,30.418536,
41.482000,525.034093,41.480000,10.293750,41.416000,30.535345,
41.673000,524.586227,41.672000,10.293750,41.608000,30.574282,
41.866000,521.899027,41.864000,10.293750,41.800000,30.587261,
42.057000,520.107560,42.056000,10.293750,41.992000,30.591587,
42.250000,521.003293,42.248000,10.293750,42.184000,30.593029,
42.441000,519.659693,42.440000,10.293750,42.376000,30.726843,
42.633000,517.868227,42.632000,10.293750,42.568000,30.771448,
42.825000,515.628893,42.824000,10.293750,42.760000,30.786316,
43.018000,513.389560,43.016000,10.293750,42.952000,30.791272,
43.210000,511.150227,43.208000,10.293750,43.145000,30.792924,
43.401000,508.463027,43.400000,10.160417,43.336000,30.926808,
43.593000,507.119427,43.592000,10.249306,43.528000,30.971436,
43.785000,505.327960,43.784000,10.278935,43.720000,30.986312,
43.981000,502.640760,43.976000,10.288812,43.912000,30.991271,
44.169000,505.775827,44.168000,10.292104,44.104000,30.992924,
44.361000,505.775827,44.360000,10.293201,44.296000,31.126808,
44.553000,505.327960,44.552000,10.293567,44.488000,31.171436,
44.745000,503.984360,44.744000,10.293689,44.680000,31.186312,
44.937000,502.640760,44.936000,10.160396,44.872000,31.191271,
45.130000,501.297160,45.128000,10.249299,45.064000,31.326257,
45.322000,495.922760,45.320000,10.145600,45.256000,31.371252,
45.513000,497.266360,45.512000,10.111033,45.448000,31.386251,
45.705000,496.818493,45.704000,10.232844,45.640000,31.524584,
45.898000,496.370627,45.896000,10.140115,45.832000,31.437361,
46.090000,494.131293,46.088000,10.109205,46.024000,31.541620,
46.281000,491.891960,46.280000,10.232235,46.216000,31.576373,
46.473000,490.996227,46.472000,10.139912,46.408000,31.587958,
46.666000,490.996227,46.664000,10.109137,46.600000,31.591819,
46.862000,491.891960,46.856000,10.098879,46.792000,31.593106,
47.049000,490.996227,47.048000,10.095460,46.984000,31.710202,
47.242000,492.787693,47.240000,10.094320,47.176000,31.749234,
47.433000,491.891960,47.432000,10.093940,47.368000,31.762245,
47.627000,488.756893,47.624000,10.093813,47.560000,31.766582,
47.817000,488.309027,47.816000,10.227104,47.752000,31.768027,
48.009000,486.517560,48.008000,10.138201,47.944000,31.768509,
48.202000,482.934627,48.200000,10.108567,48.136000,31.902003,
48.393000,479.799560,48.392000,10.098689,48.329000,31.946501,
48.586000,482.038893,48.584000,10.095396,48.520000,31.961334,
48.777000,481.143160,48.776000,10.094299,48.712000,31.966278,
48.971000,480.247427,48.968000,10.093933,48.904000,31.967926,
49.162000,479.351693,49.160000,10.093811,49.096000,31.968475,
49.353000,476.664493,49.352000,10.093770,49.288000,31.968658,
49.545000,473.977293,49.544000,10.093757,49.480000,32.102053,
49.737000,473.529427,49.736000,10.093752,49.672000,32.146518,
49.929000,468.602893,49.928000,10.093751,49.864000,32.161339,
50.122000,473.977293,50.120000,10.093750,50.056000,32.166280,
50.314000,472.185827,50.312000,10.093750,50.248000,32.167927,
50.509000,471.290093,50.504000,10.093750,50.440000,32.168476,
50.698000,470.394360,50.696000,10.093750,50.632000,32.168659,
50.892000,469.050760,50.888000,10.093750,50.824000,32.302053,
51.081000,467.259293,51.080000,10.093750,51.016000,32.346518,
51.276000,466.363560,51.272000,10.093750,51.208000,32.361339,
51.471000,464.572093,51.464000,10.093750,51.400000,32.366280,
51.657000,462.332760,51.656000,10.093750,51.592000,32.367927,
51.850000,460.093427,51.848000,10.093750,51.784000,32.368476,
52.042000,458.749827,52.040000,10.093750,51.976000,32.368659,
52.233000,458.301960,52.232000,10.093750,52.168000,32.502053,
52.426000,457.854093,52.424000,10.093750,52.360000,32.546518,
52.618000,456.958360,52.616000,10.093750,52.552000,32.561339,
52.809000,456.062627,52.808000,10.227083,52.744000,32.566280,
53.003000,455.614760,53.000000,10.138194,52.936000,32.567927,
53.193000,455.166893,53.192000,10.241898,53.128000,32.568476,
53.388000,452.927560,53.384000,10.143133,53.320000,32.568659,
53.578000,451.583960,53.576000,10.110211,53.512000,32.685386,
53.769000,450.688227,53.768000,10.232570,53.704000,32.724295,
53.966000,448.896760,53.960000,10.273357,53.896000,32.737265,
54.153000,448.001027,54.152000,10.286952,54.088000,32.741588,
54.345000,445.761693,54.344000,10.291484,54.280000,32.743029,
54.538000,439.491560,54.536000,10.292995,54.472000,32.743510,
54.729000,435.460760,54.728000,10.160165,54.664000,32.743670,
54.922000,435.012893,54.920000,10.249222,54.856000,32.877057,
55.116000,435.012893,55.112000,10.278907,55.048000,32.921519,
55.306000,434.117160,55.304000,10.267969,55.240000,32.915506,
55.498000,432.773560,55.496000,10.285156,55.432000,32.934335,
55.693000,430.086360,55.688000,10.270052,55.624000,32.919778,
55.882000,424.264093,55.880000,10.265017,55.816000,32.914926,
56.074000,423.816227,56.072000,10.263339,56.008000,33.046642,
56.265000,421.576893,56.264000,10.262780,56.200000,33.090547,
56.458000,422.920493,56.456000,10.262593,56.392000,33.105182,
56.649000,423.368360,56.648000,10.262531,56.584000,33.110061,
56.841000,426.055560,56.840000,10.262510,56.776000,33.111687,
57.033000,427.399160,57.032000,10.262503,56.968000,33.245562,
57.225000,428.294893,57.224000,10.262501,57.160000,33.156854,
57.416000,426.951293,57.415000,10.129167,57.352000,33.260618,
57.609000,425.607693,57.607000,10.218056,57.544000,33.295206,
57.801000,424.711960,57.799000,10.247685,57.736000,33.306735,
57.993000,424.711960,57.991000,10.257562,57.928000,33.310578,
58.186000,424.711960,58.184000,10.260854,58.120000,33.311859,
58.378000,425.159827,58.376000,10.261951,58.313000,33.312286,
58.570000,420.233293,58.568000,10.262317,58.505000,33.445762,
58.763000,423.368360,58.760000,10.262439,58.697000,33.490254,
58.954000,422.024760,58.952000,10.262480,58.889000,33.505085,
59.146000,421.576893,59.144000,10.262493,59.081000,33.510028,
59.338000,420.681160,59.336000,10.262498,59.273000,33.511676,
59.533000,420.681160,59.529000,10.262499,59.464000,33.512225,
59.722000,420.233293,59.720000,10.262500,59.657000,33.512408,
59.914000,419.337560,59.912000,10.283333,59.849000,33.649969,
60.106000,418.441827,60.104000,10.290278,60.041000,33.695823,
60.298000,417.993960,60.296000,10.292593,60.233000,33.711108,
60.493000,416.650360,60.489000,10.293364,60.425000,33.716203,
60.682000,415.306760,60.680000,10.293621,60.617000,33.717901,
60.873000,414.411027,60.872000,10.293707,60.809000,33.718467,
