heat_flux_time_[ms],heat_flux_[W/m^2],thermocouple1_time_[ms],thermocouple1_[degC],thermocouple2_time_[ms],thermocouple2_[deg_C]
0.195000,660.289827,0.190000,24.106250,0.126000,24.481250,
0.385000,754.341827,0.382000,23.839583,0.319000,24.481250,
0.577000,825.552627,0.575000,23.484028,0.511000,24.481250,
0.775000,879.296627,0.767000,23.115509,0.703000,24.481250,
0.964000,921.843960,0.959000,22.859336,0.896000,24.481250,
1.153000,954.090360,1.152000,22.640612,1.088000,24.614583,
1.347000,979.618760,1.344000,22.434371,1.280000,24.659028,
1.538000,1000.668493,1.536000,22.248957,1.472000,24.673843,
1.730000,1017.239560,1.728000,22.053819,1.665000,24.678781,
1.925000,1030.675560,1.921000,21.722106,1.857000,24.547094,
2.116000,1040.976493,2.113000,21.478202,2.049000,24.636531,
2.311000,1049.038093,2.306000,21.263567,2.242000,24.666344,
2.500000,1055.756093,2.498000,21.075356,2.434000,24.676281,
2.692000,1062.026227,2.690000,20.879285,2.627000,24.679594,
2.886000,1065.609160,2.883000,20.680595,2.819000,24.680698,
3.076000,1068.744227,3.075000,20.481032,3.011000,24.681066,
3.269000,1070.983560,3.267000,20.281177,3.204000,24.681189,
3.461000,1072.775027,3.460000,20.097892,3.396000,24.681230,
3.655000,1073.670760,3.652000,19.903464,3.588000,24.681243,
3.847000,1073.222893,3.845000,19.705321,3.781000,24.681248,
4.038000,1072.775027,4.037000,19.505940,3.973000,24.681249,
4.233000,1071.431427,4.229000,19.306147,4.166000,24.681250,
4.423000,1070.535693,4.422000,19.122882,4.358000,24.681250,
4.618000,1066.057027,4.614000,19.061794,4.550000,24.681250,
4.808000,1064.713427,4.806000,18.908098,4.743000,24.681250,
5.000000,1064.265560,4.999000,18.723533,4.935000,24.681250,
5.193000,1062.921960,5.191000,18.662011,5.128000,24.681250,
5.386000,1061.130493,5.383000,18.508170,5.320000,24.814583,
5.580000,1059.339027,5.576000,18.323557,5.512000,24.859028,
5.772000,1057.547560,5.768000,18.262019,5.705000,24.873843,
5.964000,1054.412493,5.961000,18.108173,5.897000,24.878781,
6.154000,1052.621027,6.153000,18.056891,6.089000,24.880427,
6.347000,1049.933827,6.345000,17.923130,6.282000,24.880976,
6.542000,1046.798760,6.538000,17.745210,6.475000,24.881159,
6.733000,1043.215827,6.730000,17.552570,6.667000,24.881220,
6.927000,1039.632893,6.923000,17.488357,6.859000,24.881240,
7.117000,1037.841427,7.115000,17.466952,7.052000,24.881247,
7.311000,1032.019160,7.308000,17.305651,7.244000,24.860416,
7.504000,1027.988360,7.500000,17.251884,7.436000,24.986805,
7.694000,1030.675560,7.692000,17.100628,7.628000,25.028935,
7.888000,1029.331960,7.885000,16.933543,7.821000,25.042978,
8.079000,1027.988360,8.077000,16.898681,8.013000,25.068493,
8.271000,1026.196893,8.269000,16.732894,8.205000,25.056164,
8.463000,1024.405427,8.462000,16.698465,8.398000,25.072888,
8.658000,1020.822493,8.655000,16.553655,8.590000,25.211796,
8.849000,1016.343827,8.847000,16.505385,8.784000,25.258099,
9.044000,1016.343827,9.040000,16.468462,8.976000,25.252700,
9.236000,1012.313027,9.232000,16.322821,9.168000,25.250900,
9.426000,1007.834360,9.424000,16.274274,9.361000,25.250300,
9.619000,1002.459960,9.617000,16.124758,9.553000,25.250100,
9.811000,996.637693,9.809000,16.074919,9.745000,25.250033,
10.004000,992.159027,10.002000,15.941640,9.938000,25.250011,
10.198000,987.680360,10.194000,15.897213,10.130000,25.250004,
10.390000,984.545293,10.386000,15.749071,10.322000,25.366668,
10.580000,981.858093,10.578000,15.699690,10.515000,25.405556,
10.772000,976.931560,10.771000,15.683230,10.707000,25.418519,
10.965000,972.005027,10.963000,15.544410,10.899000,25.422840,
11.168000,968.422093,11.156000,15.518970,11.092000,25.445113,
11.349000,964.839160,11.348000,15.510490,11.284000,25.585871,
11.543000,962.599827,11.540000,15.374330,11.477000,25.632790,
11.735000,959.912627,11.733000,15.328943,11.669000,25.648430,
11.927000,956.777560,11.925000,15.180481,11.861000,25.653643,
12.119000,954.538227,12.117000,15.130994,12.054000,25.655381,
12.312000,949.611693,12.310000,15.114498,12.246000,25.655960,
12.506000,941.997960,12.502000,14.975666,12.438000,25.656153,
12.697000,941.550093,12.695000,14.929389,12.631000,25.789551,
12.888000,939.758627,12.887000,14.913963,12.823000,25.834017,
13.081000,936.623560,13.079000,14.792154,13.016000,25.848839,
13.275000,934.384227,13.272000,14.751551,13.208000,25.853780,
13.468000,930.801293,13.464000,14.738017,13.400000,25.855427,
13.659000,927.218360,13.656000,14.733506,13.593000,25.855976,
13.851000,923.187560,13.849000,14.598669,13.785000,25.989492,
14.046000,919.604627,14.041000,14.553723,13.978000,26.033997,
14.235000,916.917427,14.234000,14.405408,14.170000,26.048832,
14.430000,913.334493,14.426000,14.489303,14.363000,26.053777,
14.620000,911.543027,14.618000,14.383934,14.555000,26.055426,
14.818000,907.960093,14.811000,14.348811,14.747000,26.055975,
15.005000,905.272893,15.003000,14.337104,14.940000,26.189492,
15.197000,903.033560,15.196000,14.333201,15.132000,26.233997,
15.392000,900.794227,15.388000,14.198567,15.324000,26.248832,
15.582000,898.107027,15.580000,14.153689,15.517000,26.253777,
15.777000,894.076227,15.773000,14.138730,15.709000,26.255426,
15.968000,889.597560,15.965000,14.000410,15.901000,26.255975,
16.159000,885.118893,16.158000,13.954303,16.094000,26.256158,
16.352000,883.327427,16.350000,13.938934,16.286000,26.372886,
16.544000,881.983827,16.542000,13.933811,16.479000,26.411795,
16.736000,879.296627,16.735000,13.815437,16.671000,26.424765,
16.928000,876.161560,16.927000,13.775979,16.863000,26.562422,
17.121000,871.682893,17.120000,13.762826,17.056000,26.608307,
17.316000,866.756360,17.312000,13.758442,17.248000,26.756936,
17.506000,861.381960,17.504000,13.756981,17.441000,26.939812,
17.698000,859.142627,17.697000,13.623160,17.633000,27.000771,
17.891000,856.455427,17.889000,13.578553,17.825000,27.021090,
18.084000,851.976760,18.081000,13.563684,18.018000,27.161197,
18.276000,848.841693,18.274000,13.558728,18.210000,27.324566,
18.468000,843.915160,18.466000,13.557076,18.403000,27.379022,
18.666000,838.092893,18.659000,13.423192,18.595000,27.397174,
18.853000,835.405693,18.851000,13.378564,18.787000,27.536558,
19.048000,834.062093,19.043000,13.363688,18.980000,27.583019,
19.238000,831.822760,19.236000,13.358729,19.172000,27.598506,
19.430000,830.927027,19.428000,13.357076,19.365000,27.603669,
19.625000,830.031293,19.621000,13.356525,19.557000,27.738723,
19.815000,828.239827,19.813000,13.223008,19.749000,27.783741,
20.011000,825.104760,20.006000,13.178503,19.942000,27.798747,
20.200000,822.417560,20.198000,13.163668,20.134000,27.937082,
20.393000,819.282493,20.390000,13.158723,20.326000,27.983194,
20.585000,816.595293,20.582000,13.157074,20.519000,27.998565,
20.779000,812.564493,20.775000,13.156525,20.711000,28.003688,
20.971000,808.085827,20.967000,13.023008,20.904000,28.138729,
21.162000,805.398627,21.160000,12.978503,21.096000,28.183743,
21.355000,802.711427,21.352000,12.963668,21.288000,28.198748,
21.546000,800.472093,21.544000,12.958723,21.481000,28.203749,
21.738000,795.097693,21.737000,12.957074,21.674000,28.205416,
21.931000,793.306227,21.929000,12.956525,21.866000,28.339305,
22.124000,790.619027,22.122000,12.818842,22.058000,28.363102,
22.315000,788.827560,22.314000,12.889614,22.250000,28.487701,
22.509000,785.244627,22.506000,12.913205,22.443000,28.529234,
22.700000,783.901027,22.699000,12.804402,22.635000,28.543078,
22.893000,782.557427,22.891000,12.768134,22.827000,28.547693,
23.086000,781.213827,23.083000,12.756045,23.019000,28.682564,
23.279000,776.287293,23.276000,12.772848,23.212000,28.748355,
23.470000,772.704360,23.468000,12.778449,23.404000,28.903618,
23.664000,773.152227,23.660000,12.780316,23.597000,28.955373,
23.855000,770.017160,23.853000,12.780939,23.789000,28.972624,
24.047000,768.225693,24.045000,12.647813,23.982000,29.111708,
24.241000,765.538493,24.238000,12.603438,24.174000,29.158069,
24.433000,758.372627,24.430000,12.721979,24.366000,29.173523,
24.624000,759.716227,24.622000,12.628160,24.559000,29.312008,
24.817000,757.924760,24.815000,12.596887,24.751000,29.358169,
25.009000,755.237560,25.007000,12.586462,24.944000,29.373556,
25.203000,753.446093,25.200000,12.582987,25.136000,29.495352,
25.394000,751.206760,25.392000,12.581829,25.328000,29.535951,
25.586000,749.415293,25.584000,12.581443,25.521000,29.549484,
25.779000,748.071693,25.777000,12.447981,25.713000,29.553995,
25.971000,747.175960,25.969000,12.403494,25.905000,29.688832,
26.164000,745.384493,26.162000,12.521998,26.098000,29.733777,
26.357000,742.249427,26.355000,12.428166,26.291000,29.748759,
26.551000,738.666493,26.547000,12.396889,26.484000,29.753753,
26.741000,735.531427,26.740000,12.386463,26.676000,29.888751,
26.933000,731.500627,26.932000,12.382988,26.868000,29.933750,
27.127000,727.021960,27.124000,12.381829,27.061000,29.948750,
27.320000,724.782627,27.317000,12.381443,27.253000,30.087083,
27.514000,720.751827,27.510000,12.381314,27.445000,30.133194,
27.704000,718.064627,27.702000,12.381271,27.638000,30.148565,
27.900000,715.825293,27.894000,12.247924,27.830000,30.153688,
28.089000,712.242360,28.086000,12.336808,28.023000,30.155396,
28.280000,710.898760,28.279000,12.366436,28.215000,30.289299,
28.475000,710.003027,28.471000,12.242979,28.407000,30.333933,
28.665000,708.659427,28.664000,12.201826,28.600000,30.348811,
28.858000,706.867960,28.856000,12.188109,28.792000,30.353770,
29.051000,704.628627,29.048000,12.183536,28.985000,30.355423,
29.242000,702.837160,29.241000,12.182012,29.177000,30.472641,
29.435000,701.493560,29.433000,12.181504,29.370000,30.511714,
29.627000,698.358493,29.625000,12.160501,29.562000,30.637238,
29.822000,696.119160,29.818000,12.153500,29.754000,30.679079,
30.012000,692.536227,30.010000,12.151167,29.946000,30.826360,
30.207000,690.296893,30.203000,12.171222,30.139000,30.896287,
30.396000,687.609693,30.395000,12.157074,30.332000,30.898762,
30.589000,685.370360,30.587000,12.152358,30.524000,31.032921,
30.784000,683.131027,30.780000,12.150786,30.716000,31.077640,
30.976000,680.891693,30.972000,12.150262,30.908000,31.092547,
31.167000,676.413027,31.164000,12.150087,31.101000,31.097516,
31.359000,671.038627,31.356000,12.150029,31.293000,31.232505,
31.550000,669.247160,31.549000,12.150010,31.485000,31.277502,
31.744000,667.007827,31.741000,12.150003,31.678000,31.292501,
31.935000,665.664227,31.933000,12.150001,31.870000,31.430834,
32.129000,663.872760,32.126000,12.016667,32.062000,31.476945,
32.321000,662.977027,32.318000,11.972222,32.255000,31.492315,
32.512000,662.081293,32.511000,12.090741,32.447000,31.497438,
32.704000,658.498360,32.703000,11.996914,32.639000,31.499146,
32.898000,655.811160,32.895000,11.965638,32.832000,31.616382,
33.089000,654.467560,33.088000,11.955213,33.024000,31.655461,
33.282000,650.436760,33.280000,11.951738,33.216000,31.801820,
33.474000,646.405960,33.472000,11.950579,33.409000,31.717273,
33.667000,642.375160,33.665000,11.950193,33.601000,31.822424,
33.859000,640.135827,33.857000,11.950064,33.793000,31.857475,
34.051000,637.896493,34.049000,11.950021,33.986000,32.002492,
34.244000,636.105027,34.242000,11.950007,34.178000,32.050831,
34.438000,635.209293,34.434000,11.950002,34.370000,32.066944,
34.629000,631.626360,34.626000,11.950001,34.563000,32.072315,
34.820000,632.522093,34.819000,11.950000,34.755000,32.074105,
35.013000,629.834893,35.011000,11.950000,34.947000,32.208035,
35.205000,626.699827,35.203000,11.950000,35.140000,32.252678,
35.398000,622.669027,35.396000,11.950000,35.332000,32.267559,
35.592000,619.086093,35.588000,11.950000,35.524000,32.272520,
35.781000,618.190360,35.780000,11.950000,35.717000,32.407507,
35.974000,616.846760,35.972000,11.970833,35.909000,32.473336,
36.166000,615.503160,36.165000,11.956944,36.101000,32.474445,
36.358000,614.159560,36.357000,11.973148,36.293000,32.612315,
36.550000,612.815960,36.549000,11.978549,36.486000,32.658272,
36.743000,607.441560,36.742000,11.980350,36.678000,32.673591,
36.935000,605.202227,36.934000,11.980950,36.870000,32.678697,
37.128000,609.680893,37.126000,11.981150,37.063000,32.813732,
37.320000,608.785160,37.318000,11.981217,37.255000,32.858744,
37.512000,606.993693,37.511000,11.981239,37.447000,32.873748,
37.708000,606.097960,37.703000,11.981246,37.640000,33.012083,
37.897000,604.306493,37.895000,11.981249,37.832000,33.058194,
38.089000,601.619293,38.088000,11.847916,38.024000,33.073565,
38.282000,598.036360,38.280000,11.936805,38.216000,33.078688,
38.476000,594.901293,38.472000,11.966435,38.409000,33.213729,
38.666000,593.109827,38.665000,11.976312,38.601000,33.258743,
38.859000,590.422627,38.857000,11.979604,38.793000,33.273748,
39.051000,588.183293,39.049000,11.980701,38.986000,33.278749,
39.243000,586.839693,39.241000,11.981067,39.178000,33.413750,
39.435000,585.943960,39.434000,11.981189,39.370000,33.458750,
39.630000,585.048227,39.627000,11.981230,39.563000,33.473750,
39.822000,585.048227,39.820000,11.960410,39.756000,33.457917,
40.015000,584.152493,40.014000,11.953470,39.949000,33.569306,
40.210000,582.361027,40.208000,11.951157,40.144000,33.606435,
40.405000,580.121693,40.403000,11.950386,40.338000,33.618812,
40.600000,577.882360,40.598000,11.950129,40.533000,33.756271,
40.796000,574.747293,40.793000,11.950043,40.728000,33.802090,
40.991000,570.268627,40.988000,11.950014,40.923000,33.817363,
41.187000,565.342093,41.183000,11.816671,41.118000,33.822454,
41.380000,563.550627,41.378000,11.905557,41.313000,33.824151,
41.576000,563.550627,41.573000,11.935186,41.508000,33.958050,
41.770000,562.207027,41.768000,11.945062,41.703000,34.002683,
41.967000,556.384760,41.963000,11.948354,41.898000,34.017561,
42.160000,554.145427,42.158000,11.949451,42.093000,34.022520,
42.356000,554.145427,42.353000,11.949817,42.288000,34.024173,
42.549000,552.353960,42.547000,11.949939,42.483000,34.158058,
42.746000,551.458227,42.743000,11.949980,42.678000,34.069353,
42.938000,548.323160,42.937000,11.949993,42.873000,34.173118,
43.134000,546.083827,43.132000,11.949998,43.068000,34.207706,
43.330000,543.844493,43.327000,11.949999,43.263000,34.352569,
43.526000,544.292360,43.522000,11.950000,43.458000,34.400856,
43.720000,544.740227,43.718000,11.950000,43.654000,34.416952,
43.920000,543.396627,43.913000,11.950000,43.848000,34.422317,
44.111000,540.261560,44.108000,11.950000,44.043000,34.424106,
44.305000,538.917960,44.303000,11.950000,44.239000,34.558035,
44.500000,538.022227,44.498000,11.950000,44.434000,34.602678,
44.698000,536.230760,44.693000,11.950000,44.629000,34.617559,
44.892000,534.887160,44.888000,11.950000,44.824000,34.622520,
45.087000,533.095693,45.084000,11.950000,45.019000,34.740840,
45.281000,532.199960,45.278000,11.950000,45.214000,34.780280,
45.481000,530.856360,45.474000,11.950000,45.409000,34.793427,
45.670000,530.408493,45.668000,11.950000,45.604000,34.797809,
45.868000,529.064893,45.864000,11.950000,45.799000,34.932603,
46.062000,529.064893,46.059000,11.950000,45.994000,34.977534,
46.258000,528.169160,46.254000,11.950000,46.189000,34.992511,
46.451000,526.825560,46.448000,11.950000,46.384000,34.997504,
46.667000,523.690493,46.644000,11.950000,46.579000,35.132501,
46.841000,521.899027,46.839000,11.950000,46.774000,35.177500,
47.036000,520.555427,47.034000,11.950000,46.969000,35.192500,
47.230000,516.076760,47.229000,12.083333,47.164000,35.330833,
47.429000,515.181027,47.424000,11.994444,47.359000,35.376944,
47.622000,515.628893,47.619000,11.985648,47.554000,35.413148,
47.816000,513.389560,47.814000,12.095216,47.749000,35.404383,
48.015000,513.389560,48.009000,11.998405,47.944000,35.401461,
48.208000,511.598093,48.204000,12.120302,48.139000,35.554654,
48.401000,508.463027,48.399000,12.006767,48.334000,35.584885,
48.597000,506.223693,48.594000,12.123089,48.530000,35.615795,
48.791000,504.880093,48.789000,12.161863,48.725000,35.626098,
48.988000,505.327960,48.984000,12.020621,48.919000,35.608699,
49.182000,508.910893,49.179000,12.106874,49.115000,35.602900,
49.378000,509.358760,49.375000,12.135625,49.310000,35.717633,
49.572000,507.119427,49.569000,12.145208,49.505000,35.639211,
49.769000,501.745027,49.765000,12.148403,49.700000,35.729737,
49.962000,504.432227,49.959000,12.149468,49.895000,35.759912,
50.159000,502.192893,50.155000,12.149823,50.090000,35.769971,
50.354000,499.057827,50.350000,12.149941,50.285000,35.773324,
50.548000,497.266360,50.545000,12.149980,50.480000,35.907775,
50.741000,495.922760,50.739000,12.149993,50.677000,35.952592,
50.941000,494.579160,50.935000,12.149998,50.870000,35.967531,
51.134000,492.787693,51.130000,12.149999,51.065000,35.972510,
51.329000,489.652627,51.325000,12.170833,51.260000,36.128337,
51.523000,482.934627,51.520000,12.177778,51.455000,36.046946,
51.733000,482.486760,51.715000,12.180093,51.651000,36.153149,
51.913000,480.247427,51.910000,12.160031,51.845000,36.167716,
52.111000,481.143160,52.106000,12.153344,52.040000,36.172572,
52.302000,484.278227,52.300000,12.151115,52.235000,36.174191,
52.497000,484.726093,52.495000,12.150372,52.430000,36.308064,
52.693000,483.382493,52.690000,12.150124,52.625000,36.352688,
52.889000,483.382493,52.885000,12.150041,52.820000,36.367563,
53.083000,482.038893,53.080000,12.150014,53.015000,36.372521,
53.280000,480.247427,53.276000,12.170838,53.210000,36.395007,
53.473000,478.903827,53.470000,12.156946,53.406000,36.515002,
53.667000,477.112360,53.665000,12.152315,53.601000,36.555001,
53.862000,475.320893,53.860000,12.150772,53.796000,36.568334,
54.057000,473.529427,54.055000,12.150257,53.991000,36.689445,
54.252000,471.290093,54.250000,12.170919,54.186000,36.750648,
54.449000,468.602893,54.446000,12.156973,54.381000,36.750216,
54.644000,466.363560,54.641000,12.152324,54.576000,36.750072,
54.841000,464.124227,54.836000,12.150775,54.771000,36.883357,
55.032000,461.884893,55.031000,12.150258,54.966000,36.927786,
55.227000,460.093427,55.226000,12.150086,55.161000,36.942595,
55.423000,458.749827,55.421000,12.150029,55.356000,36.947532,
55.620000,455.614760,55.616000,12.283343,55.551000,37.082511,
55.813000,451.136093,55.811000,12.327781,55.746000,37.127504,
56.007000,450.688227,56.006000,12.342594,55.941000,37.142501,
56.203000,452.927560,56.201000,12.347531,56.136000,37.147500,
56.397000,454.271160,56.396000,12.370010,56.331000,37.170000,
56.595000,452.927560,56.591000,12.377503,56.526000,37.310833,
56.788000,452.479693,56.786000,12.380001,56.721000,37.357778,
56.984000,452.479693,56.981000,12.380834,56.916000,37.373426,
57.179000,451.136093,57.176000,12.381111,57.112000,37.378642,
57.374000,449.344627,57.371000,12.381204,57.307000,37.380381,
57.569000,447.105293,57.567000,12.381235,57.502000,37.514294,
57.763000,446.209560,57.762000,12.381245,57.697000,37.558931,
57.958000,444.418093,57.957000,12.381248,57.892000,37.573810,
58.155000,442.178760,58.152000,12.381249,58.087000,37.578770,
58.348000,439.043693,58.347000,12.360416,58.282000,37.692923,
58.543000,437.700093,58.542000,12.353472,58.477000,37.730974,
58.738000,438.147960,58.737000,12.351157,58.673000,37.743658,
58.934000,439.043693,58.932000,12.350386,58.867000,37.747886,
59.129000,439.939427,59.127000,12.350129,59.062000,37.749295,
59.324000,440.387293,59.322000,12.350043,59.257000,37.749765,
59.519000,438.595827,59.517000,12.350014,59.452000,37.866588,
59.713000,439.939427,59.712000,12.350005,59.647000,37.905529,
59.912000,437.252227,59.907000,12.350002,59.842000,37.918510,
60.105000,432.773560,60.102000,12.350001,60.037000,37.922837,
60.299000,429.190627,60.297000,12.350000,60.232000,37.924279,
60.494000,426.951293,60.492000,12.483333,60.428000,38.058093,
60.689000,423.368360,60.687000,12.394444,60.623000,38.102698,
60.884000,425.607693,60.882000,12.498148,60.818000,38.117566,
61.079000,428.294893,61.077000,12.532716,61.013000,38.122522,
61.276000,428.294893,61.273000,12.544239,61.209000,38.124174,
