heat_flux_time_[ms],heat_flux_[W/m^2],thermocouple1_time_[ms],thermocouple1_[degC],thermocouple2_time_[ms],thermocouple2_[deg_C]
0.195000,659.841960,0.192000,22.300000,0.128000,23.075000,
0.386000,742.697293,0.384000,22.166667,0.320000,23.208333,
0.578000,803.159293,0.576000,21.855556,0.512000,23.119444,
0.770000,849.737427,0.768000,21.618519,0.705000,23.223148,
0.962000,885.566760,0.960000,21.422840,0.897000,23.124383,
1.154000,912.886627,1.152000,21.090947,1.089000,23.091461,
1.348000,934.832093,1.345000,20.846982,1.281000,23.080487,
1.540000,951.403160,1.537000,20.632327,1.474000,23.076829,
1.734000,965.734893,1.730000,20.444109,1.666000,23.075610,
1.924000,974.692227,1.922000,20.248036,1.858000,23.075203,
2.119000,984.097427,2.114000,20.049345,2.051000,23.075068,
2.309000,990.815427,2.306000,19.849782,2.242000,23.075023,
2.501000,995.294093,2.498000,19.649927,2.435000,23.075008,
2.695000,999.324893,2.691000,19.466642,2.627000,23.075003,
2.885000,1000.668493,2.883000,19.272214,2.819000,23.075001,
3.079000,1000.668493,3.075000,19.074071,3.012000,23.075000,
3.271000,1001.116360,3.267000,18.895524,3.204000,23.095833,
3.465000,1000.668493,3.460000,18.836008,3.396000,23.102778,
3.653000,1000.220627,3.652000,18.682836,3.588000,23.238426,
3.846000,999.324893,3.845000,18.498445,3.781000,23.283642,
4.046000,997.533427,4.038000,18.436982,3.974000,23.298714,
4.231000,995.294093,4.230000,18.278994,4.166000,23.282905,
4.426000,993.502627,4.422000,18.113831,4.358000,23.298468,
4.616000,991.263293,4.614000,18.058777,4.551000,23.303656,
4.808000,989.023960,4.807000,17.907092,4.743000,23.305385,
5.003000,988.128227,4.999000,17.856531,4.935000,23.305962,
5.193000,987.232493,5.191000,17.706344,5.128000,23.306154,
5.387000,984.993160,5.384000,17.656281,5.320000,23.306218,
5.577000,983.201693,5.576000,17.506260,5.512000,23.439573,
5.770000,980.066627,5.768000,17.339587,5.705000,23.484024,
5.962000,976.483693,5.960000,17.284029,5.897000,23.498841,
6.154000,974.244360,6.153000,17.132176,6.089000,23.503780,
6.350000,972.005027,6.346000,17.081559,6.282000,23.505427,
6.541000,968.869960,6.537000,16.931353,6.474000,23.505976,
6.733000,966.182760,6.730000,16.881284,6.666000,23.506159,
6.927000,957.673293,6.922000,16.843761,6.858000,23.602053,
7.116000,956.329693,7.114000,16.697920,7.051000,23.517351,
7.310000,952.746760,7.307000,16.670140,7.243000,23.759950,
7.502000,949.163827,7.499000,16.506713,7.435000,23.819983,
7.697000,943.789427,7.692000,16.452238,7.627000,23.839994,
7.885000,937.519293,7.883000,16.454913,7.820000,23.867498,
8.078000,934.384227,8.075000,16.455804,8.012000,23.876666,
8.270000,926.770493,8.268000,16.339435,8.205000,23.879722,
8.462000,913.782360,8.460000,16.300645,8.397000,23.880741,
8.657000,917.365293,8.653000,16.287715,8.589000,24.014414,
8.847000,913.782360,8.845000,16.150072,8.781000,24.058971,
9.039000,912.438760,9.037000,16.104191,8.974000,24.073824,
9.233000,912.438760,9.229000,15.955564,9.166000,24.212108,
9.423000,908.855827,9.422000,15.906021,9.359000,24.258203,
9.619000,906.168627,9.615000,15.889507,9.551000,24.406901,
9.810000,907.512227,9.806000,15.884002,9.743000,24.323134,
10.000000,904.825027,9.998000,15.882167,9.936000,24.295211,
10.193000,898.554893,10.191000,15.748222,10.127000,24.419237,
10.386000,895.419827,10.383000,15.703574,10.320000,24.460579,
10.577000,889.597560,10.575000,15.688691,10.512000,24.474360,
10.771000,886.462493,10.768000,15.683730,10.704000,24.478953,
10.965000,886.462493,10.960000,15.548743,10.897000,24.480484,
11.155000,886.014627,11.152000,15.503748,11.089000,24.597661,
11.347000,885.118893,11.345000,15.488749,11.281000,24.636720,
11.541000,882.879560,11.538000,15.483750,11.474000,24.649740,
11.732000,879.744493,11.729000,15.348750,11.666000,24.654080,
11.927000,875.265827,11.922000,15.303750,11.858000,24.655527,
12.116000,871.235027,12.114000,15.288750,12.050000,24.656009,
12.307000,866.756360,12.306000,15.283750,12.243000,24.656170,
12.500000,865.412760,12.498000,15.282083,12.435000,24.656223,
12.692000,860.486227,12.691000,15.281528,12.627000,24.656241,
12.891000,857.799027,12.883000,15.164676,12.820000,24.656247,
13.078000,852.424627,13.075000,15.125725,13.012000,24.789582,
13.269000,850.185293,13.268000,15.112742,13.204000,24.834027,
13.462000,848.841693,13.460000,15.108414,13.397000,24.848842,
13.654000,846.602360,13.652000,15.106971,13.589000,24.853781,
13.846000,847.498093,13.845000,15.106490,13.781000,24.855427,
14.040000,841.675827,14.037000,15.106330,13.973000,24.855976,
14.233000,837.645027,14.229000,15.106277,14.166000,24.856159,
14.423000,835.405693,14.421000,14.972926,14.358000,24.856220,
14.615000,834.062093,14.614000,14.928475,14.550000,24.856240,
14.811000,832.718493,14.807000,14.913658,14.743000,24.856247,
15.001000,830.031293,14.999000,14.908719,14.935000,24.989582,
15.196000,828.239827,15.191000,14.907073,15.127000,25.034027,
15.386000,824.656893,15.383000,14.906524,15.320000,25.048842,
15.578000,822.417560,15.576000,14.773008,15.512000,25.053781,
15.770000,818.834627,15.768000,14.728503,15.705000,25.055427,
15.962000,818.386760,15.961000,14.713668,15.897000,25.055976,
16.156000,818.386760,16.154000,14.708723,16.090000,25.056159,
16.347000,818.834627,16.345000,14.707074,16.282000,25.056220,
16.539000,815.251693,16.538000,14.706525,16.474000,25.056240,
16.731000,812.564493,16.730000,14.706342,16.667000,25.056247,
16.924000,810.325160,16.922000,14.706281,16.859000,25.056249,
17.120000,808.533693,17.115000,14.706260,17.051000,25.056250,
17.312000,802.263560,17.308000,14.572920,17.244000,25.056250,
17.503000,800.472093,17.499000,14.528473,17.436000,25.056250,
17.697000,800.024227,17.692000,14.646991,17.628000,25.056250,
17.888000,799.128493,17.885000,14.553164,17.821000,25.189583,
18.080000,796.441293,18.077000,14.521888,18.013000,25.234028,
18.271000,791.962627,18.269000,14.511463,18.206000,25.248843,
18.466000,791.962627,18.462000,14.507988,18.398000,25.253781,
18.656000,790.171160,18.654000,14.506829,18.590000,25.255427,
18.848000,787.036093,18.846000,14.506443,18.783000,25.255976,
19.041000,785.244627,19.039000,14.506314,18.975000,25.256159,
19.233000,783.453160,19.231000,14.506271,19.168000,25.256220,
19.427000,780.765960,19.424000,14.506257,19.359000,25.256240,
19.618000,777.630893,19.616000,14.372919,19.552000,25.256247,
19.810000,778.078760,19.808000,14.461806,19.745000,25.256249,
20.002000,777.630893,20.001000,14.358102,19.937000,25.256250,
20.195000,775.391560,20.193000,14.323534,20.130000,25.256250,
20.386000,771.360760,20.385000,14.312011,20.322000,25.256250,
20.581000,766.434227,20.578000,14.308170,20.515000,25.389583,
20.775000,760.164093,20.771000,14.306890,20.706000,25.434028,
20.964000,755.685427,20.962000,14.306463,20.899000,25.448843,
21.157000,754.341827,21.155000,14.306321,21.091000,25.453781,
21.350000,752.102493,21.348000,14.306274,21.284000,25.455427,
21.543000,749.415293,21.541000,14.306258,21.477000,25.455976,
21.735000,746.728093,21.733000,14.306253,21.670000,25.456159,
21.929000,746.280227,21.926000,14.306251,21.862000,25.456220,
22.122000,745.384493,22.118000,14.306250,22.054000,25.456240,
22.312000,743.593027,22.310000,14.306250,22.247000,25.456247,
22.507000,744.488760,22.503000,14.306250,22.439000,25.456249,
22.699000,745.384493,22.696000,14.306250,22.632000,25.456250,
22.891000,746.280227,22.887000,14.306250,22.824000,25.589583,
23.084000,748.519560,23.080000,14.189583,23.016000,25.634028,
23.273000,747.175960,23.272000,14.267361,23.209000,25.648843,
23.466000,744.488760,23.465000,14.176620,23.401000,25.653781,
23.658000,744.488760,23.657000,14.146373,23.593000,25.655427,
23.851000,743.593027,23.849000,14.136291,23.786000,25.655976,
24.047000,744.040893,24.042000,14.132930,23.978000,25.656159,
24.236000,740.457960,24.234000,14.131810,24.171000,25.656220,
24.428000,735.531427,24.427000,14.131437,24.363000,25.656240,
24.620000,735.531427,24.619000,14.131312,24.556000,25.656247,
24.813000,727.469827,24.811000,14.131271,24.748000,25.656249,
25.009000,733.292093,25.004000,14.131257,24.940000,25.656250,
25.200000,734.187827,25.196000,14.131252,25.133000,25.656250,
25.390000,733.292093,25.388000,14.131251,25.325000,25.656250,
25.582000,732.396360,25.581000,14.131250,25.517000,25.772917,
25.777000,729.709160,25.774000,14.131250,25.710000,25.811806,
25.971000,726.126227,25.966000,14.131250,25.902000,25.824769,
26.161000,722.543293,26.158000,13.997917,26.095000,25.829090,
26.355000,718.512493,26.351000,14.086806,26.287000,25.830530,
26.544000,712.242360,26.543000,13.983102,26.479000,25.831010,
26.738000,708.211560,26.735000,14.081867,26.672000,25.831170,
26.930000,705.524360,26.928000,13.981456,26.864000,25.831223,
27.122000,707.315827,27.120000,13.947985,27.057000,25.831241,
27.314000,709.107293,27.312000,13.936828,27.249000,25.831247,
27.506000,712.242360,27.505000,13.933109,27.441000,25.831249,
27.699000,712.690227,27.697000,13.931870,27.634000,25.831250,
27.893000,712.690227,27.890000,13.931457,27.826000,25.964583,
28.084000,714.929560,28.082000,13.931319,28.019000,26.009028,
28.280000,718.064627,28.276000,13.931273,28.211000,25.890509,
28.470000,717.168893,28.467000,13.931258,28.403000,25.984336,
28.662000,712.690227,28.659000,13.931253,28.596000,26.015612,
28.853000,713.138093,28.852000,13.931251,28.788000,26.026037,
29.046000,712.690227,29.044000,13.931250,28.980000,26.029512,
29.239000,711.346627,29.236000,13.931250,29.173000,26.030671,
29.430000,709.555160,29.429000,13.931250,29.365000,26.031057,
29.623000,708.659427,29.622000,13.931250,29.557000,26.031186,
29.815000,705.076493,29.813000,13.931250,29.750000,26.031229,
30.007000,700.149960,30.006000,13.931250,29.942000,26.031243,
30.200000,698.806360,30.198000,13.931250,30.134000,26.031248,
30.392000,695.671293,30.391000,13.931250,30.327000,26.031249,
30.585000,694.327693,30.583000,13.931250,30.520000,26.031250,
30.777000,692.536227,30.775000,13.931250,30.712000,26.031250,
30.969000,692.088360,30.968000,13.931250,30.904000,26.164583,
31.161000,690.744760,31.160000,13.931250,31.096000,26.075694,
31.354000,694.327693,31.352000,13.931250,31.288000,26.179398,
31.557000,690.744760,31.545000,13.797917,31.481000,26.213966,
31.738000,689.401160,31.737000,13.886806,31.673000,26.225489,
31.931000,688.057560,31.930000,13.783102,31.866000,26.229330,
32.123000,687.609693,32.122000,13.748534,32.058000,26.230610,
32.316000,683.131027,32.314000,13.737011,32.250000,26.231037,
32.508000,684.474627,32.507000,13.733170,32.443000,26.231179,
32.700000,682.683160,32.699000,13.731890,32.635000,26.231226,
32.893000,684.026760,32.891000,13.731463,32.827000,26.231242,
33.085000,685.370360,33.084000,13.731321,33.020000,26.231247,
33.278000,680.443827,33.276000,13.731274,33.212000,26.231249,
33.470000,679.548093,33.469000,13.731258,33.405000,26.231250,
33.666000,680.891693,33.662000,13.731253,33.597000,26.231250,
33.855000,678.204493,33.854000,13.731251,33.789000,26.231250,
34.047000,675.517293,34.046000,13.731250,33.982000,26.231250,
34.239000,675.965160,34.238000,13.731250,34.174000,26.231250,
34.433000,675.517293,34.431000,13.731250,34.367000,26.231250,
34.625000,675.069427,34.623000,13.731250,34.560000,26.231250,
34.817000,675.517293,34.816000,13.731250,34.752000,26.364583,
35.009000,675.965160,35.008000,13.731250,34.944000,26.409028,
35.202000,676.860893,35.200000,13.731250,35.137000,26.423843,
35.395000,676.860893,35.393000,13.731250,35.329000,26.428781,
35.586000,675.517293,35.585000,13.731250,35.522000,26.430427,
35.779000,671.934360,35.778000,13.731250,35.714000,26.430976,
35.974000,669.247160,35.970000,13.731250,35.907000,26.431159,
36.166000,669.247160,36.163000,13.731250,36.099000,26.431220,
36.356000,668.799293,36.355000,13.731250,36.291000,26.431240,
36.549000,664.320627,36.547000,13.731250,36.484000,26.431247,
36.744000,661.185560,36.740000,13.731250,36.676000,26.431249,
36.935000,659.394093,36.932000,13.731250,36.868000,26.431250,
37.128000,661.633427,37.125000,13.731250,37.061000,26.431250,
37.319000,660.289827,37.317000,13.731250,37.253000,26.431250,
37.514000,655.363293,37.509000,13.731250,37.446000,26.564583,
37.703000,654.467560,37.701000,13.731250,37.638000,26.609028,
37.895000,654.467560,37.894000,13.731250,37.830000,26.623843,
38.091000,646.405960,38.087000,13.731250,38.022000,26.628781,
38.281000,647.749560,38.279000,13.731250,38.215000,26.630427,
38.473000,651.332493,38.471000,13.731250,38.408000,26.630976,
38.665000,646.405960,38.663000,13.731250,38.600000,26.631159,
38.858000,647.301693,38.857000,13.731250,38.792000,26.631220,
39.052000,648.645293,39.049000,13.731250,38.986000,26.631240,
39.246000,649.093160,39.242000,13.731250,39.177000,26.631247,
39.438000,647.301693,39.434000,13.731250,39.371000,26.631249,
39.629000,642.375160,39.626000,13.731250,39.563000,26.631250,
39.822000,638.792227,39.819000,13.731250,39.755000,26.631250,
40.016000,641.479427,40.011000,13.731250,39.948000,26.631250,
40.205000,638.792227,40.203000,13.731250,40.140000,26.631250,
40.404000,639.687960,40.396000,13.731250,40.333000,26.631250,
40.593000,638.344360,40.588000,13.731250,40.525000,26.631250,
40.788000,640.135827,40.781000,13.731250,40.717000,26.631250,
40.977000,637.000760,40.973000,13.731250,40.910000,26.631250,
41.167000,637.896493,41.165000,13.731250,41.102000,26.631250,
41.359000,637.448627,41.358000,13.731250,41.294000,26.631250,
41.552000,638.344360,41.550000,13.731250,41.487000,26.747917,
41.744000,631.178493,41.743000,13.731250,41.679000,26.786806,
41.938000,632.522093,41.935000,13.731250,41.872000,26.799769,
42.129000,636.105027,42.127000,13.731250,42.064000,26.804090,
42.327000,635.657160,42.320000,13.731250,42.256000,26.805530,
42.514000,636.105027,42.512000,13.731250,42.449000,26.806010,
42.705000,635.209293,42.705000,13.731250,42.641000,26.806170,
42.899000,635.209293,42.897000,13.731250,42.833000,26.806223,
43.094000,626.699827,43.089000,13.731250,43.026000,26.806241,
43.283000,635.209293,43.282000,13.731250,43.218000,26.806247,
43.475000,627.595560,43.474000,13.731250,43.411000,26.806249,
43.668000,632.969960,43.666000,13.731250,43.603000,26.806250,
43.860000,633.417827,43.859000,13.731250,43.795000,26.806250,
44.053000,631.626360,44.051000,13.731250,43.988000,26.806250,
44.245000,627.595560,44.244000,13.731250,44.180000,26.806250,
44.437000,625.804093,44.436000,13.731250,44.372000,26.806250,
44.630000,625.356227,44.628000,13.731250,44.565000,26.806250,
44.823000,627.147693,44.820000,13.752083,44.757000,26.827083,
45.017000,624.012627,45.013000,13.759028,44.949000,26.834028,
45.207000,624.460493,45.205000,13.761343,45.142000,26.836343,
45.398000,624.012627,45.397000,13.628781,45.334000,26.970448,
45.594000,626.251960,45.590000,13.697094,45.526000,26.994316,
45.783000,626.699827,45.782000,13.719865,45.719000,27.002272,
45.977000,624.908360,45.974000,13.727455,45.911000,27.004924,
46.167000,625.356227,46.166000,13.596652,46.103000,27.005808,
46.362000,624.460493,46.359000,13.553051,46.295000,27.006103,
46.553000,620.877560,46.551000,13.671850,46.488000,27.006201,
46.750000,620.877560,46.743000,13.711450,46.680000,27.006234,
46.939000,622.669027,46.936000,13.591317,46.873000,27.006245,
47.130000,621.773293,47.128000,13.551272,47.065000,27.006248,
47.325000,619.086093,47.321000,13.537924,47.257000,27.139583,
47.515000,616.846760,47.513000,13.533475,47.449000,27.184028,
47.706000,619.086093,47.705000,13.531992,47.642000,27.198843,
47.899000,620.877560,47.897000,13.531497,47.834000,27.203781,
48.091000,619.086093,48.089000,13.531332,48.026000,27.205427,
48.286000,619.533960,48.282000,13.531277,48.218000,27.205976,
48.476000,619.086093,48.474000,13.531259,48.411000,27.206159,
48.668000,619.533960,48.666000,13.531253,48.603000,27.339553,
48.864000,615.055293,48.859000,13.531251,48.795000,27.384018,
49.053000,616.398893,49.051000,13.552084,48.988000,27.419673,
49.248000,615.503160,49.244000,13.559028,49.179000,27.431558,
49.439000,616.398893,49.436000,13.540509,49.372000,27.414686,
49.629000,614.607427,49.628000,13.555170,49.564000,27.429895,
49.822000,615.503160,49.820000,13.560057,49.757000,27.434965,
50.014000,615.503160,50.012000,13.540852,49.949000,27.549155,
50.209000,615.503160,50.205000,13.534451,50.141000,27.453885,
50.399000,615.503160,50.397000,13.532317,50.334000,27.555462,
50.597000,615.055293,50.589000,13.531606,50.526000,27.589321,
50.783000,615.055293,50.782000,13.531369,50.718000,27.600607,
50.975000,612.368093,50.974000,13.531290,50.911000,27.604369,
51.171000,611.472360,51.167000,13.552097,51.103000,27.626456,
51.360000,610.128760,51.358000,13.559032,51.295000,27.633819,
51.555000,611.472360,51.551000,13.540511,51.487000,27.615440,
51.745000,611.472360,51.743000,13.555170,51.680000,27.630147,
51.937000,612.368093,51.935000,13.560057,51.872000,27.635049,
52.132000,611.920227,52.128000,13.561686,52.064000,27.636683,
52.323000,609.680893,52.320000,13.562229,52.256000,27.753894,
52.513000,613.263827,52.512000,13.562410,52.449000,27.676298,
52.706000,612.815960,52.704000,13.562470,52.641000,27.767099,
52.900000,613.711693,52.897000,13.562490,52.833000,27.680700,
53.090000,608.785160,53.089000,13.562497,53.025000,27.651900,
53.285000,605.202227,53.281000,13.562499,53.218000,27.758967,
53.478000,606.993693,53.474000,13.562500,53.410000,27.794656,
53.670000,609.233027,53.666000,13.541667,53.602000,27.785719,
53.859000,607.441560,53.858000,13.555556,53.795000,27.803573,
54.052000,604.306493,54.050000,13.426852,53.987000,27.809524,
54.244000,603.410760,54.243000,13.517284,54.179000,27.811508,
54.436000,602.515027,54.435000,13.526595,54.372000,27.791336,
54.629000,598.932093,54.627000,13.550532,54.564000,27.805445,
54.821000,599.379960,54.820000,13.404344,54.756000,27.922648,
55.014000,598.932093,55.012000,13.355615,54.948000,27.828383,
55.206000,599.379960,55.204000,13.339372,55.141000,27.796961,
55.400000,596.692760,55.397000,13.354791,55.333000,27.807320,
55.590000,597.140627,55.589000,13.472430,55.525000,27.789940,
55.785000,594.901293,55.781000,13.532477,55.718000,27.938313,
55.975000,591.766227,55.973000,13.552492,55.910000,27.854438,
56.168000,594.453427,56.166000,13.538331,56.102000,27.938979,
56.362000,595.349160,56.359000,13.533610,56.295000,27.833826,
56.554000,591.318360,56.551000,13.552870,56.488000,27.819609,
56.748000,590.870493,56.745000,13.538457,56.680000,27.927370,
56.939000,592.214093,56.936000,13.421152,56.872000,27.850790,
57.130000,593.557693,57.128000,13.494551,57.065000,27.937763,
57.322000,594.453427,57.320000,13.539850,57.257000,27.987588,
57.515000,595.349160,57.513000,13.554950,57.450000,28.004196,
57.709000,594.453427,57.706000,13.539150,57.642000,27.988899,
57.904000,593.557693,57.897000,13.554717,57.834000,28.004633,
58.093000,592.661960,58.090000,13.405739,58.026000,27.989044,
58.285000,593.557693,58.282000,13.489413,58.219000,27.983848,
58.477000,593.557693,58.474000,13.517304,58.411000,27.982116,
58.671000,594.453427,58.667000,13.393268,58.603000,27.981539,
58.862000,594.005560,58.859000,13.351923,58.795000,27.981346,
59.052000,594.005560,59.051000,13.338141,58.988000,27.981282,
59.245000,590.870493,59.244000,13.333547,59.180000,27.981261,
59.437000,591.318360,59.436000,13.465349,59.373000,27.981254,
59.632000,592.214093,59.629000,13.375950,59.565000,27.981251,
59.824000,592.214093,59.821000,13.346150,59.757000,27.981250,
60.019000,590.422627,60.013000,13.336217,59.949000,27.981250,
60.208000,589.974760,60.205000,13.466239,60.142000,28.114583,
60.399000,589.526893,60.398000,13.376246,60.334000,28.025694,
60.593000,586.391827,60.590000,13.346249,60.527000,28.129398,
60.785000,589.526893,60.783000,13.357083,60.719000,28.184799,
60.979000,590.422627,60.975000,13.360694,60.912000,28.203266,
