heat_flux_time_[ms],heat_flux_[W/m^2],thermocouple1_time_[ms],thermocouple1_[degC],thermocouple2_time_[ms],thermocouple2_[deg_C]
0.192000,496.818493,0.191000,22.393750,0.127000,22.993750,
0.385000,607.441560,0.383000,22.256250,0.319000,22.972917,
0.577000,691.640493,0.574000,21.943750,0.511000,22.965972,
0.769000,758.820493,0.767000,21.460417,0.703000,23.117824,
0.961000,810.325160,0.959000,21.049306,0.895000,23.168441,
1.156000,851.976760,1.151000,20.645602,1.087000,23.051980,
1.345000,884.671027,1.343000,20.261034,1.279000,23.013160,
1.540000,910.647293,1.535000,19.999511,1.471000,23.133553,
1.729000,927.666227,1.727000,19.624837,1.663000,23.152851,
1.921000,941.997960,1.918000,19.249946,1.855000,23.025950,
2.121000,953.642493,2.111000,18.991649,2.047000,22.983650,
2.305000,969.765693,2.303000,18.772216,2.239000,23.102883,
2.500000,974.692227,2.495000,18.432405,2.431000,23.009294,
2.688000,989.023960,2.686000,18.185802,2.623000,22.978098,
2.881000,993.950493,2.878000,17.986934,2.815000,23.101033,
3.075000,997.085560,3.070000,17.787311,3.006000,23.142011,
3.267000,999.772760,3.262000,17.454104,3.199000,23.155670,
3.456000,1001.564227,3.454000,17.343035,3.391000,23.160223,
3.651000,1004.251427,3.646000,17.172678,3.583000,23.161741,
3.840000,1006.490760,3.838000,16.999226,3.775000,23.162247,
4.032000,1006.938627,4.030000,16.808075,3.967000,23.162416,
4.224000,1006.490760,4.222000,16.611025,4.159000,23.162472,
4.419000,1005.147160,4.415000,16.412008,4.351000,23.162491,
4.610000,1003.803560,4.606000,16.212336,4.542000,23.162497,
4.800000,1002.459960,4.798000,16.145779,4.735000,23.162499,
4.994000,996.637693,4.991000,16.006926,4.927000,23.162500,
5.187000,997.981293,5.182000,15.827309,5.119000,23.162500,
5.378000,996.189827,5.374000,15.634103,5.310000,23.279167,
5.571000,994.398360,5.566000,15.569701,5.502000,23.318056,
5.759000,992.159027,5.758000,15.414900,5.694000,23.331019,
5.963000,984.993160,5.950000,15.229967,5.887000,23.335340,
6.143000,987.680360,6.142000,15.168322,6.078000,23.336780,
6.335000,985.441027,6.334000,15.014441,6.270000,23.337260,
6.528000,981.410227,6.526000,14.963147,6.462000,23.337420,
6.720000,977.379427,6.718000,14.829382,6.654000,23.470807,
6.912000,973.796493,6.910000,14.784794,6.846000,23.515269,
7.104000,971.109293,7.102000,14.636598,7.038000,23.530090,
7.298000,969.317827,7.294000,14.453866,7.230000,23.535030,
7.487000,965.287027,7.486000,14.392955,7.422000,23.536677,
7.679000,959.464760,7.677000,14.372652,7.613000,23.537226,
7.874000,954.538227,7.870000,14.232551,7.806000,23.537409,
8.064000,951.403160,8.062000,14.185850,7.998000,23.670803,
8.258000,950.507427,8.254000,14.057783,8.191000,23.736101,
8.447000,941.102227,8.446000,14.015094,8.382000,23.757867,
8.639000,937.071427,8.637000,13.884198,8.574000,23.765122,
8.831000,931.697027,8.829000,13.840566,8.766000,23.767541,
9.024000,934.832093,9.022000,13.692689,8.958000,23.768347,
9.217000,933.488493,9.214000,13.643396,9.150000,23.768616,
9.408000,930.353427,9.406000,13.493632,9.342000,23.902039,
9.600000,930.801293,9.597000,13.443711,9.534000,23.946513,
9.790000,928.114093,9.789000,13.293737,9.726000,23.961338,
9.983000,920.948227,9.982000,13.243746,9.918000,23.966279,
10.176000,919.604627,10.174000,13.227082,10.110000,23.967926,
10.368000,929.457693,10.366000,13.088194,10.302000,23.968475,
10.560000,939.310760,10.558000,13.041898,10.494000,24.101992,
10.755000,933.936360,10.750000,13.026466,10.686000,24.146497,
10.946000,924.083293,10.942000,12.883822,10.879000,24.140499,
11.139000,913.334493,11.135000,12.857107,11.071000,24.159333,
11.332000,907.512227,11.326000,12.848202,11.263000,24.165611,
11.522000,905.720760,11.519000,12.691067,11.455000,24.146870,
11.712000,899.002760,11.710000,12.638689,11.647000,24.257290,
11.904000,889.597560,11.902000,12.621230,11.839000,24.294097,
12.100000,891.836893,12.095000,12.615410,12.031000,24.306366,
12.289000,891.389027,12.286000,12.480137,12.223000,24.310455,
12.482000,889.597560,12.478000,12.435046,12.415000,24.311818,
12.675000,886.910360,12.671000,12.420015,12.607000,24.312273,
12.865000,881.983827,12.862000,12.281672,12.799000,24.445758,
13.059000,873.026493,13.055000,12.235557,12.991000,24.490253,
13.248000,869.443560,13.246000,12.220186,13.183000,24.505084,
13.441000,869.891427,13.438000,12.215062,13.375000,24.510028,
13.631000,869.891427,13.630000,12.080021,13.567000,24.645009,
13.825000,872.578627,13.822000,12.035007,13.759000,24.690003,
14.022000,872.578627,14.014000,12.020002,13.951000,24.705001,
14.209000,873.026493,14.206000,12.015001,14.142000,24.710000,
14.400000,867.204227,14.398000,11.880000,14.334000,24.711667,
14.595000,866.756360,14.590000,11.835000,14.527000,24.712222,
14.785000,864.069160,14.782000,11.703333,14.718000,24.845741,
14.978000,860.934093,14.974000,11.659444,14.911000,24.890247,
15.171000,856.007560,15.166000,11.644815,15.102000,25.038416,
15.361000,853.320360,15.358000,11.639938,15.294000,24.954472,
15.551000,850.185293,15.550000,11.638313,15.487000,25.059824,
15.744000,846.602360,15.742000,11.637771,15.679000,25.228275,
15.939000,843.915160,15.934000,11.504257,15.871000,25.151092,
16.130000,840.332227,16.126000,11.459752,16.063000,25.258697,
16.321000,835.853560,16.318000,11.444917,16.255000,25.411232,
16.515000,833.166360,16.511000,11.439972,16.447000,25.595411,
16.704000,829.135560,16.702000,11.304991,16.640000,25.656804,
16.896000,824.656893,16.894000,11.259997,16.831000,25.677268,
17.090000,826.000493,17.087000,11.244999,17.022000,25.684089,
17.280000,825.552627,17.278000,11.240000,17.215000,25.686363,
17.475000,824.656893,17.471000,11.105000,17.407000,25.820454,
17.664000,821.969693,17.663000,11.060000,17.599000,25.865151,
17.860000,819.282493,17.855000,11.045000,17.791000,25.880050,
18.049000,813.908093,18.047000,11.040000,17.983000,25.885017,
18.241000,810.773027,18.239000,11.038333,18.175000,26.020006,
18.434000,807.637960,18.431000,11.037778,18.367000,26.065002,
18.627000,804.950760,18.623000,10.904259,18.559000,26.080001,
18.819000,802.711427,18.816000,10.993086,18.751000,26.085000,
19.012000,800.919960,19.008000,10.889362,18.943000,26.220000,
19.201000,799.576360,19.199000,10.854787,19.136000,26.265000,
19.393000,795.993427,19.391000,10.843262,19.328000,26.280000,
19.586000,792.858360,19.583000,10.839421,19.520000,26.285000,
19.780000,790.171160,19.776000,10.721474,19.711000,26.403333,
19.968000,786.140360,19.967000,10.682158,19.904000,26.442778,
20.161000,782.557427,20.160000,10.669053,20.096000,26.455926,
20.359000,779.422360,20.352000,10.664684,20.288000,26.460309,
20.548000,775.391560,20.544000,10.663228,20.480000,26.461770,
20.737000,772.256493,20.736000,10.529409,20.672000,26.462257,
20.930000,769.121427,20.928000,10.618136,20.864000,26.595752,
21.122000,767.329960,21.120000,10.514379,21.056000,26.640251,
21.314000,765.090627,21.312000,10.479793,21.248000,26.655084,
21.512000,763.299160,21.504000,10.468264,21.440000,26.660028,
21.698000,761.955560,21.697000,10.464421,21.633000,26.661676,
21.890000,753.893960,21.888000,10.463140,21.825000,26.795559,
22.084000,750.311027,22.080000,10.462713,22.017000,26.840186,
22.278000,750.311027,22.273000,10.329238,22.209000,26.855062,
22.466000,748.519560,22.464000,10.284746,22.400000,26.860021,
22.657000,751.206760,22.656000,10.269915,22.593000,26.861674,
22.851000,749.415293,22.848000,10.264972,22.785000,26.995558,
23.042000,743.593027,23.040000,10.263324,22.977000,27.040186,
23.237000,740.905827,23.233000,10.262775,23.169000,27.055062,
23.428000,735.083560,23.424000,10.262592,23.361000,27.060021,
23.619000,731.948493,23.617000,10.262531,23.553000,27.195007,
23.810000,732.396360,23.809000,10.129177,23.745000,27.240002,
24.003000,730.604893,24.001000,10.084726,23.937000,27.255001,
24.195000,727.917693,24.193000,10.069909,24.129000,27.260000,
24.386000,724.334760,24.385000,10.064970,24.321000,27.378333,
24.584000,720.751827,24.578000,10.063323,24.513000,27.417778,
24.771000,718.064627,24.769000,10.062774,24.705000,27.430926,
24.962000,715.825293,24.961000,10.062591,24.898000,27.435309,
25.155000,709.555160,25.153000,10.062530,25.090000,27.570103,
25.347000,707.315827,25.345000,9.929177,25.282000,27.615034,
25.542000,704.180760,25.538000,9.884726,25.474000,27.630011,
25.733000,699.254227,25.729000,9.869909,25.666000,27.635004,
25.924000,689.849027,25.921000,9.864970,25.858000,27.636668,
26.115000,689.849027,26.113000,9.863323,26.050000,27.770556,
26.306000,681.339560,26.305000,9.862774,26.242000,27.815185,
26.502000,671.934360,26.498000,9.862591,26.434000,27.830062,
26.692000,675.517293,26.689000,9.862530,26.626000,27.835021,
26.885000,674.173693,26.882000,9.862510,26.818000,27.970007,
27.076000,674.173693,27.073000,9.862503,27.010000,28.015002,
27.267000,667.007827,27.266000,9.862501,27.202000,28.030001,
27.462000,675.965160,27.458000,9.745834,27.394000,28.035000,
27.656000,678.204493,27.650000,9.823611,27.587000,28.170000,
27.845000,679.100227,27.842000,9.732870,27.778000,28.215000,
28.037000,676.860893,28.034000,9.702623,27.971000,28.230000,
28.229000,670.142893,28.226000,9.692541,28.163000,28.235000,
28.424000,662.977027,28.420000,9.689180,28.356000,28.236667,
28.614000,659.394093,28.611000,9.688060,28.548000,28.237222,
28.804000,653.571827,28.803000,9.687687,28.740000,28.370741,
29.000000,652.228227,28.995000,9.687562,28.932000,28.415247,
29.189000,655.811160,29.187000,9.687521,29.124000,28.430082,
29.385000,652.676093,29.380000,9.687507,29.316000,28.435027,
29.574000,649.988893,29.571000,9.687502,29.508000,28.436676,
29.768000,645.958093,29.763000,9.687501,29.700000,28.553892,
29.958000,643.718760,29.956000,9.687500,29.892000,28.592964,
30.149000,641.927293,30.147000,9.554167,30.084000,28.605988,
30.346000,642.375160,30.340000,9.643056,30.276000,28.743663,
30.533000,642.823027,30.532000,9.672685,30.468000,28.789554,
30.727000,641.927293,30.724000,9.549228,30.660000,28.804851,
30.918000,646.405960,30.916000,9.508076,30.852000,28.809950,
31.109000,645.062360,31.108000,9.494359,31.044000,28.944983,
31.306000,638.344360,31.300000,9.489786,31.236000,28.989994,
31.496000,634.313560,31.492000,9.488262,31.428000,29.004998,
31.689000,629.834893,31.684000,9.487754,31.621000,29.143333,
31.878000,624.908360,31.876000,9.487585,31.813000,29.322778,
32.070000,626.251960,32.068000,9.487528,32.005000,29.249259,
32.261000,624.908360,32.260000,9.487509,32.196000,29.358086,
32.456000,623.564760,32.452000,9.487503,32.389000,29.394362,
32.652000,621.773293,32.644000,9.487501,32.581000,29.523121,
32.841000,619.981827,32.837000,9.487500,32.773000,29.566040,
33.029000,619.086093,33.028000,9.487500,32.965000,29.580347,
33.221000,619.086093,33.220000,9.487500,33.157000,29.585116,
33.414000,618.190360,33.412000,9.487500,33.348000,29.720039,
33.609000,616.398893,33.604000,9.487500,33.540000,29.765013,
33.797000,612.815960,33.796000,9.487500,33.732000,29.780004,
33.990000,612.368093,33.988000,9.487500,33.924000,29.918335,
34.183000,614.159560,34.180000,9.354167,34.116000,29.831112,
34.377000,613.263827,34.372000,9.443056,34.308000,29.935371,
34.568000,610.128760,34.564000,9.339352,34.500000,29.970124,
34.758000,604.754360,34.756000,9.304784,34.692000,30.115041,
34.949000,597.588493,34.948000,9.293261,34.884000,30.030014,
35.144000,588.631160,35.140000,9.289420,35.076000,30.135005,
35.334000,584.152493,35.332000,9.288140,35.268000,30.170002,
35.529000,588.183293,35.525000,9.287713,35.460000,30.181667,
35.717000,594.005560,35.716000,9.287571,35.652000,30.318889,
35.911000,595.797027,35.908000,9.420857,35.844000,30.364630,
36.101000,594.453427,36.099000,9.331952,36.036000,30.379877,
36.294000,589.079027,36.292000,9.302317,36.227000,30.384959,
36.487000,584.152493,36.484000,9.292439,36.420000,30.386653,
36.680000,581.913160,36.675000,9.289146,36.612000,30.387218,
36.869000,576.986627,36.867000,9.288049,36.804000,30.504073,
37.062000,573.403693,37.059000,9.287683,36.996000,30.543024,
37.253000,571.612227,37.251000,9.287561,37.188000,30.689341,
37.453000,570.716493,37.443000,9.287520,37.380000,30.738114,
37.637000,570.716493,37.635000,9.287507,37.572000,30.754371,
37.830000,563.998493,37.827000,9.287502,37.764000,30.759790,
38.022000,561.311293,38.020000,9.287501,37.956000,30.894930,
38.214000,568.925027,38.211000,9.287500,38.148000,30.939977,
38.405000,559.967693,38.403000,9.287500,38.340000,30.954992,
38.597000,564.894227,38.595000,9.287500,38.532000,30.959997,
38.789000,564.446360,38.787000,9.287500,38.724000,31.094999,
38.983000,563.998493,38.980000,9.287500,38.916000,31.140000,
39.173000,562.207027,39.171000,9.287500,39.108000,31.155000,
39.366000,559.519827,39.363000,9.287500,39.300000,31.293333,
39.559000,559.071960,39.556000,9.287500,39.492000,31.339444,
39.748000,556.832627,39.747000,9.287500,39.684000,31.354815,
39.943000,555.489027,39.939000,9.287500,39.876000,31.493272,
40.133000,555.041160,40.131000,9.287500,40.068000,31.539424,
40.325000,554.593293,40.323000,9.287500,40.260000,31.554808,
40.517000,553.249693,40.515000,9.287500,40.452000,31.559936,
40.709000,551.906093,40.707000,9.287500,40.644000,31.561645,
40.901000,550.562493,40.899000,9.287500,40.835000,31.678882,
41.095000,542.948760,41.091000,9.287500,41.027000,31.717961,
41.285000,546.531693,41.283000,9.287500,41.219000,31.730987,
41.478000,544.740227,41.475000,9.287500,41.411000,31.735329,
41.668000,543.844493,41.667000,9.287500,41.603000,31.870110,
41.860000,528.617027,41.859000,9.287500,41.796000,31.915037,
42.053000,522.346893,42.051000,9.287500,41.987000,31.930012,
42.245000,530.856360,42.243000,9.287500,42.179000,31.935004,
42.436000,532.647827,42.435000,9.287500,42.371000,32.070001,
42.628000,532.199960,42.627000,9.287500,42.564000,32.115000,
42.820000,531.752093,42.819000,9.287500,42.755000,32.130000,
43.012000,530.856360,43.010000,9.287500,42.947000,32.135000,
43.206000,529.512760,43.203000,9.287500,43.139000,32.136667,
43.398000,527.721293,43.395000,9.287500,43.331000,32.137222,
43.590000,525.481960,43.587000,9.287500,43.523000,32.270741,
43.782000,523.242627,43.779000,9.287500,43.715000,32.315247,
43.973000,520.555427,43.970000,9.287500,43.907000,32.330082,
44.164000,516.972493,44.162000,9.287500,44.099000,32.335027,
44.355000,509.358760,44.354000,9.287500,44.291000,32.470009,
44.548000,509.806627,44.546000,9.287500,44.483000,32.515003,
44.740000,506.223693,44.739000,9.287500,44.675000,32.530001,
44.936000,503.984360,44.930000,9.287500,44.867000,32.535000,
45.124000,500.849293,45.122000,9.287500,45.058000,32.536667,
45.318000,497.714227,45.314000,9.287500,45.251000,32.653889,
45.507000,495.922760,45.506000,9.287500,45.443000,32.692963,
45.705000,494.131293,45.699000,9.287500,45.635000,32.705988,
45.896000,485.621827,45.892000,9.287500,45.828000,32.710329,
46.086000,470.394360,46.083000,9.287500,46.019000,32.845110,
46.277000,478.455960,46.275000,9.287500,46.211000,32.890037,
46.469000,480.247427,46.467000,9.287500,46.404000,32.905012,
46.664000,482.038893,46.659000,9.287500,46.595000,33.043337,
46.853000,484.726093,46.851000,9.287500,46.788000,33.089446,
47.053000,484.278227,47.043000,9.287500,46.980000,33.104815,
47.237000,483.830360,47.235000,9.287500,47.172000,33.109938,
47.428000,483.382493,47.427000,9.287500,47.363000,33.111646,
47.623000,482.486760,47.619000,9.287500,47.555000,33.245549,
47.812000,482.934627,47.811000,9.287500,47.747000,33.290183,
48.004000,482.486760,48.003000,9.287500,47.939000,33.305061,
48.197000,481.591027,48.195000,9.287500,48.131000,33.310020,
48.388000,482.934627,48.387000,9.287500,48.324000,33.311673,
48.583000,483.382493,48.579000,9.287500,48.515000,33.445558,
48.774000,484.278227,48.771000,9.287500,48.707000,33.490186,
48.966000,484.726093,48.963000,9.287500,48.899000,33.621729,
49.156000,484.726093,49.155000,9.287500,49.094000,33.548910,
49.349000,486.069693,49.347000,9.287500,49.283000,33.641303,
49.543000,485.173960,49.539000,9.287500,49.475000,33.672101,
49.741000,483.382493,49.731000,9.287500,49.667000,33.682367,
49.925000,482.486760,49.923000,9.287500,49.859000,33.685789,
50.116000,480.695293,50.115000,9.287500,50.051000,33.820263,
50.308000,478.903827,50.307000,9.287500,50.243000,33.865088,
50.503000,476.216627,50.499000,9.287500,50.435000,33.880029,
50.693000,473.081560,50.690000,9.287500,50.627000,33.885010,
50.885000,467.707160,50.883000,9.287500,50.819000,33.886670,
51.077000,460.989160,51.075000,9.287500,51.011000,34.020557,
51.268000,456.062627,51.266000,9.287500,51.203000,34.065186,
51.460000,453.823293,51.458000,9.420833,51.395000,34.080062,
51.652000,451.136093,51.650000,9.331944,51.587000,34.085021,
51.845000,448.896760,51.842000,9.302315,51.779000,34.086674,
52.036000,447.105293,52.034000,9.292438,51.971000,34.220558,
52.227000,446.209560,52.226000,9.289146,52.162000,34.265186,
52.421000,443.074493,52.418000,9.421382,52.354000,34.280062,
52.614000,444.418093,52.611000,9.332127,52.547000,34.285021,
52.804000,442.626627,52.802000,9.435709,52.739000,34.286674,
52.999000,442.178760,52.994000,9.336903,52.931000,34.287225,
53.188000,441.730893,53.186000,9.437301,53.123000,34.420742,
53.380000,441.283027,53.378000,9.337434,53.315000,34.465247,
53.573000,440.387293,53.570000,9.437478,53.507000,34.480082,
53.763000,439.491560,53.762000,9.470826,53.698000,34.485027,
53.955000,438.595827,53.954000,9.481942,53.890000,34.486676,
54.158000,438.147960,54.146000,9.352314,54.082000,34.620559,
54.343000,437.252227,54.339000,9.442438,54.275000,34.531853,
54.532000,435.460760,54.530000,9.472479,54.467000,34.635618,
54.723000,429.638493,54.722000,9.482493,54.658000,34.670206,
54.917000,433.221427,54.914000,9.352498,54.851000,34.681735,
55.107000,434.117160,55.106000,9.442499,55.043000,34.802245,
55.303000,432.325693,55.298000,9.472500,55.234000,34.842415,
55.492000,431.429960,55.490000,9.482500,55.426000,34.855805,
55.683000,429.638493,55.682000,9.485833,55.618000,34.860268,
55.877000,428.742760,55.874000,9.486944,55.810000,34.995089,
56.067000,428.742760,56.066000,9.487315,56.002000,35.040030,
56.263000,427.399160,56.258000,9.487438,56.194000,35.055010,
56.451000,426.503427,56.450000,9.487479,56.386000,35.060003,
56.643000,427.399160,56.642000,9.487493,56.578000,35.061668,
56.835000,430.086360,56.834000,9.487498,56.770000,35.195556,
57.028000,428.742760,57.026000,9.487499,56.962000,35.240185,
57.219000,427.399160,57.217000,9.487500,57.154000,35.255062,
57.412000,427.399160,57.410000,9.487500,57.346000,35.260021,
57.604000,424.264093,57.601000,9.487500,57.538000,35.261674,
57.796000,426.503427,57.793000,9.487500,57.730000,35.395558,
57.987000,424.711960,57.986000,9.487500,57.922000,35.440186,
58.183000,424.264093,58.178000,9.487500,58.114000,35.455062,
58.371000,423.368360,58.369000,9.487500,58.306000,35.460021,
58.562000,423.816227,58.561000,9.487500,58.498000,35.461674,
58.755000,424.264093,58.753000,9.620833,58.690000,35.595558,
58.947000,422.920493,58.945000,9.665278,58.882000,35.640186,
59.142000,420.233293,59.138000,9.546759,59.075000,35.655062,
59.332000,417.098227,59.329000,9.507253,59.266000,35.660021,
59.523000,412.171693,59.521000,9.627418,59.458000,35.661674,
59.715000,408.588760,59.713000,9.667473,59.650000,35.662225,
59.907000,402.318627,59.905000,9.547491,59.842000,35.662408,
60.101000,397.392093,60.097000,9.640830,60.034000,35.779136,
60.291000,397.839960,60.289000,9.671943,60.226000,35.818045,
60.482000,396.496360,60.481000,9.682314,60.418000,35.831015,
60.676000,395.152760,60.673000,9.685771,60.610000,35.835338,
60.867000,400.527160,60.865000,9.686924,60.802000,35.970113,
61.062000,398.287827,61.058000,9.687308,60.994000,36.015038,
61.251000,399.183560,61.249000,9.687436,61.186000,36.030013,
61.443000,407.245160,61.441000,9.687479,61.378000,36.035004,
